Figure Index, Root Mean Square, Pearson Correlation Coefficent
0, 0.034295922597165344, 0.6347386696703787
1, 0.027675674089214255, 0.714068748527367
2, 0.14060746516724207, 0.2802334216974779
3, 0.02884507092618365, 0.39125000229807916
4, 0.030819787445517607, 0.658783341371516
5, 0.02833222311445346, 0.6903705337063528
6, 0.040714710281808945, 0.9360769211673641
7, 0.03993825160839193, 0.895832867838616
8, 0.04024014580298075, 0.8701400830872669
9, 0.039769618920425555, 0.9294115184579158
10, 0.06404628405509569, 0.7410251368993223
11, 0.049048349166298806, 0.9563769519125533
12, 0.04109251737287946, 0.9324182493823434
13, 0.035488600298273894, 0.9043549142302867
14, 0.02654220599674721, 0.42456123702322446
15, 0.034702331995368096, 0.7780059187618023
16, 0.04130515986692435, 0.9186739071265662
17, 0.0667429409688177, 0.9806463914690806
18, 0.02523233040444823, 0.7689478829396039
19, 0.042263007839482065, 0.9294079066149833
20, 0.045072803227043975, 0.9044360804503596
21, 0.0438223517230303, 0.9083513401363046
22, 0.07898815941764732, 0.8804866063321255
23, 0.04342137835714592, 0.9217435733007688
24, 0.04136759541272679, 0.9520562701685344
25, 0.036738535423153536, 0.7663045988118983
26, 0.03400862877868306, 0.8321147486282071
27, 0.04454861976848779, 0.9286531448148523
28, 0.035578863446629784, 0.8893196009122969
29, 0.03702060661503237, 0.897613778211996
30, 0.030316647676361583, 0.9853696435210011
31, 0.03586723469627771, 0.9496609133823791
32, 0.023581792237208455, 0.9480797387968642
33, 0.03254148960225335, 0.9596920236210977
34, 0.03226898759448075, 0.9716502354474499
35, 0.04498049693634976, 0.8855135034994308
36, 0.02235556706913502, 0.9778501607958858
37, 0.0366959949011668, 0.8038558995021398
38, 0.03874493713713947, 0.9195987140429245
39, 0.03066500700193446, 0.8624255369697749
40, 0.039497355299377326, 0.9389210749632337
41, 0.03946255479074383, 0.9437344584006411
42, 0.04512434727719232, 0.9252370712925762
43, 0.022531849772364318, 0.9029216695592015
44, 0.025463681981277277, 0.9425586644842185
45, 0.045852603751923474, 0.9542412833874057
46, 0.037138295374708453, 0.7778867326400045
47, 0.04168499781070841, 0.4549429513108492
48, 0.03258441371834637, 0.7785243651579226
49, 0.05873118908520739, 0.7053841804933757
50, 0.03135930758147298, 0.9341489403842554
51, 0.047107398000901114, 0.8531600364752625
52, 0.03046412110187802, 0.9383446668768731
53, 0.04120721910562528, 0.9226685554297327
54, 0.03925846967066376, 0.9461751818961593
55, 0.028252778529699884, 0.9091656806451155
56, 0.05049446564859311, 0.8185597868948948
57, 0.03682995551326599, 0.9162376617684462
58, 0.03891341934543302, 0.7437575556150445
59, 0.0668994730493779, 0.9620868931885027
60, 0.05888551842332395, 0.9443845888668418
61, 0.17171114644676325, 0.9151358616471966
62, 0.06286046327430694, 0.9363698554870654
63, 0.06260041422819032, 0.9725883251748644
64, 0.1314328240267815, 0.9765962596123074
65, 0.06173316889521084, 0.9668226833003624
66, 0.07882826210088738, 0.976265097334498
67, 0.05914489812835444, 0.9741520764397043
68, 0.06553991049397609, 0.9269581221019978
69, 0.038145598755491616, 0.8742628183892669
70, 0.06704123680090059, 0.9366949358572253
71, 0.08778922796813776, 0.9123066996883311
72, 0.11487833725351633, 0.9642710884052946
73, 0.10044785476787109, 0.6539531624267587
74, 0.11258659818187985, 0.18603380774071498
75, 0.1509635906632731, 0.6575746451080671
76, 0.0396207558763355, 0.9095001674342291
77, 0.07926286151856317, 0.3294989133477262
78, 0.05647525672836423, 0.5686718260971945
79, 0.08282242295305703, 0.48289425904372274
80, 0.044397893790868656, 0.9664803600686147
81, 0.12599843347085427, 0.6302308519318147
82, 0.04578889267436904, 0.7976170662887189
83, 0.11415047453982537, 0.6648322272199564
84, 0.05822937366000513, 0.45991495951410344
85, 0.05305096366673851, 0.6554834860651783
86, 0.04460277915045522, 0.8121071841113411
87, 0.042647722202780645, 0.7526645653346573
88, 0.07648826124565627, 0.43140250963783866
89, 0.07609430616311498, 0.7140855516849829
90, 0.039183272501747024, 0.8009626980784903
91, 0.024502211192824683, 0.5067713056690497
92, 0.05933419411849477, 0.9282249255689072
93, 0.11471355490753533, 0.9543158259648584
94, 0.0438469943753932, 0.8907468278175199
95, 0.1149231079111725, 0.2370584246069604
96, 0.0679882178306116, 0.4797468990388868
97, 0.08372321129090936, 0.3933197783185399
98, 0.11546368656079106, 0.09870112242141835
99, 0.1199203182602288, 0.34617476576088907
100, 0.12012486830990755, 0.11894380490494505
101, 0.22118194705624628, 0.15266786650172895
102, 0.0326297529226543, 0.7205723905368386
103, 0.0647986544690465, 0.6479489784401569
104, 0.07358246805086821, 0.41477651090515266
105, 0.06519720247798393, 0.48156687013808924
106, 0.047598278088046744, 0.6942309227012781
107, 0.04691154141509206, 0.6773097894514709
108, 0.03861036736444626, 0.8374625980861323
109, 0.04875700477172511, 0.6302142060589755
110, 0.03168080778069024, 0.9569016107100408
111, 0.0634531127530369, 0.9539284526952436
112, 0.05246866636106971, 0.8957210818306383
113, 0.15714522369440564, 0.3301725956620624
114, 0.016889835671327944, 0.7961451012922602
115, 0.056080702466833283, 0.5681423404656689
116, 0.07188474317590052, 0.596221313388002
117, 0.05810870127185485, 0.675603018016916
118, 0.041183161224974583, 0.6322421609663299
119, 0.06290709272860201, 0.27227592256696176
120, 0.05770799231882306, 0.5119531214033382
121, 0.05740615675725097, 0.6100562723432716
122, 0.10322639076039726, 0.4630967770235813
123, 0.10874074322207683, 0.31045007012206277
124, 0.06589413589526943, 0.5565486657018242
125, 0.0361258273382899, 0.6832287032704434
126, 0.06718795106017574, 0.351831881368862
127, 0.046715832604430546, 0.7910277389505307
128, 0.0819023072122201, 0.38993536745530616
129, 0.042196626294296324, 0.8333517361063069
130, 0.08285617872731106, 0.28319241552909774
131, 0.11929100820629328, 0.21009786954101897
132, 0.03471232375152582, 0.7937657779344585
133, 0.032062487674914444, 0.9146636714714169
134, 0.041527459195372506, 0.8188207526922312
135, 0.03401286626333671, 0.9661677039110482
136, 0.020847783428506163, 0.6355817532114658
137, 0.023283401550103715, 0.9826315812058846
138, 0.03455648097342556, 0.9442775180723908
139, 0.08526266844391861, 0.7734754486110321
140, 0.09115465910112378, 0.477703928019819
141, 0.39150343727554476, -0.07999885068610299
142, 0.1703439049260413, 0.9787366675515832
143, 0.1808685006119585, 0.9907097565247582
144, 0.11245229890248737, 0.8990018439646978
145, 0.048538313531601616, 0.8000598743038065
146, 0.05630332101761686, 0.7647579942370175
147, 0.016685345654015225, 0.5444877769232637
148, 0.09522886746310397, 0.45335074739579556
149, 0.05364658511700001, 0.7042916346259526
150, 0.04363986114438552, 0.8400471688475033
151, 0.04307252678046214, 0.8975905764535821
152, 0.047781767363730424, 0.8401281973713848
153, 0.0460518962475696, 0.9510221704241542
154, 0.043650986166410485, 0.7490331605157112
155, 0.049891570300328925, 0.7855009274574489
156, 0.043269114751230194, 0.9143913220983702
157, 0.048659666591923424, 0.6845876010445624
158, 0.020275593282404893, 0.6433361960313366
159, 0.041836225056479055, 0.7532878511828107
160, 0.049465530074931506, 0.9265970685652585
161, 0.04484954806289186, 0.8434755916782237
162, 0.044193183168313534, 0.8378116727076749
163, 0.0396952025507274, 0.7170843497208736
164, 0.06897721973643907, 0.9613063150762138
165, 0.046910593655654906, 0.7681609522383134
166, 0.052021010076219364, 0.9205766098116139
167, 0.04028987479921475, 0.9091766241732612
168, 0.18187759310038953, -0.03712297640150712
169, 0.027006781413550764, 0.4725139682149216
170, 0.09175397859684699, 0.2653226693319204
171, 0.0928824497803033, 0.5100939499470187
172, 0.06056398783949861, 0.3734645123341751
173, 0.0694375533128758, 0.3520716071613638
174, 0.08892549381438407, 0.009240562284404476
175, 0.04954978248030993, 0.37279874658366485
176, 0.1895941758643921, 0.224776123272649
177, 0.058433385810339175, 0.49221206609057033
178, 0.07271300557155823, 0.923538699109234
179, 0.10684568997025547, 0.977271711867215
180, 0.07076601924807989, -0.07559138984996897
181, 0.06314939438634048, 0.9670939931227445
182, 0.044240438732860946, 0.8527811932042648
183, 0.03671413831313443, 0.8834949153291473
184, 0.03498983835451011, 0.7791309864116063
185, 0.032969146387552745, 0.8871072231532098
186, 0.03460816485263533, 0.8861535505456071
187, 0.042160895365204974, 0.7232911808258619
188, 0.03273627981733376, 0.9106250031110968
189, 0.03293661700699411, 0.8109245060167922
190, 0.027002553494808672, 0.7130123482275548
191, 0.03917615851540741, 0.7364100443126148
192, 0.034471083594341013, 0.896449857587708
193, 0.024971927976162683, 0.8936221339920523
194, 0.03140569771442244, 0.9017062446197288
195, 0.03324387668918145, 0.8434508879761403
196, 0.03182391515858451, 0.8820548804829781
197, 0.17721333568732492, 0.2830833820925452
198, 0.02061179175229876, 0.9489507916192661
199, 0.02260488411900425, 0.8773592952957225
200, 0.01535518567236088, 0.8516030128822601
201, 0.022886063363959087, 0.8142765424773304
202, 0.04071952680683902, 0.8054951669061794
203, 0.028616781860683855, 0.7144436865133772
204, 0.02541545474076897, 0.7014577562239478
205, 0.08895825643682412, 0.7777047421338338
206, 0.045185086316401, 0.4974211454597276
207, 0.027830497467410113, 0.5391467091262201
208, 0.06021252104905954, 0.2862365845279544
209, 0.03673321684801623, 0.5344685566151047
210, 0.028079954670481286, 0.5420789407065756
211, 0.14054661877910973, 0.9831677462231775
212, 0.12177596975734344, 0.8113466249276512
213, 0.062105824257989876, 0.7212092709873036
214, 0.09905904225789938, 0.9843414791997238
215, 0.1042278135182772, 0.5079239955030438
216, 0.08577341083770264, 0.785407252720187
217, 0.061182622596205494, 0.8713761611239399
218, 0.07945550951188966, 0.9008243536347632
219, 0.06640334315532516, 0.03282299277454808
220, 0.07553164399233926, -0.1657775106555574
221, 0.15974387990290517, 0.5603111590464691
222, 0.06559048509565045, 0.7404294636573017
223, 0.07836278310145411, 0.1888303110792225
224, 0.06468709277774055, 0.5379349706264983
225, 0.013744343817657401, 0.8782591859050521
226, 0.05284796464963789, 0.5908233370008771
227, 0.03182716841278689, 0.8323785644284444
228, 0.07651706402306246, 0.5529289990562412
229, 0.041072506552232546, 0.735100447555801
230, 0.03965482000160866, 0.7137145572249035
231, 0.040184474189729584, 0.7605510825747959
232, 0.05210690807880267, 0.9413211439699041
233, 0.08281180749107124, 0.9047978240470832
234, 0.04118870379271635, 0.38863587433546626
235, 0.03294723411458944, 0.9196997681537799
236, 0.015450715321446559, 0.8719511143426874
237, 0.04960343009593404, 0.9650562763420869
238, 0.04130948113987634, 0.9716468941293626
239, 0.026880740331034023, 0.8121008605260757
240, 0.02504756672310289, 0.8594812597114865
241, 0.020721179736537112, 0.70214733201544
242, 0.028411436927402913, 0.6344697802466744
243, 0.025653889006475333, 0.905167751620699
244, 0.02704394444383699, 0.8274331080710404
245, 0.04420353816138449, 0.5064971132004067
246, 0.023206058698957, 0.8932550564574158
247, 0.021564317650488555, 0.9177487395576989
248, 0.0328406905220284, 0.7868105921327491
249, 0.0349961349688744, 0.9216239591267205
250, 0.03135461111672091, 0.756647360356407
251, 0.0621344433698213, 0.2684392568549957
252, 0.019443414290678144, 0.932982261301149
253, 0.026614866451843865, 0.8623572161670676
254, 0.031930985420662514, 0.51985363602567
255, 0.03450409689695797, 0.5596397690198982
256, 0.04469142458174982, 0.9315101747528269
257, 0.0459605197902919, 0.9593060030105168
258, 0.02716345583720826, 0.8786605884580019
259, 0.06867074546180806, 0.9561179870074388
260, 0.027539481065588026, 0.9161016812813625
261, 0.03193774842477101, 0.9089181846773814
262, 0.06923923554957773, 0.4918662480331629
263, 0.06043422009591436, 0.5638904845461457
264, 0.04597921490590081, 0.8998124420287062
265, 0.09706133486643811, 0.6430512790717289
266, 0.06956587309274871, 0.8572363655290453
267, 0.22822178467980206, -0.0003864626574409658
268, 0.04818728599424964, 0.6847483080156955
269, 0.017846416792011367, 0.8718655791652402
270, 0.07557015584850356, 0.8839840451088846
271, 0.07010424347893128, 0.9682539609853495
272, 0.08531648490120193, 0.11514477560256449
273, 0.03622454352627813, 0.7510746305984822
274, 0.03706865496359219, 0.9597712521492512
275, 0.026644150891573327, 0.8869029094674974
276, 0.03135115379528235, 0.8873494490460458
277, 0.03517496167420624, 0.912846525540647
278, 0.03868409775129979, 0.9453410641873213
279, 0.04199519438617748, 0.9592221785967019
280, 0.016229553694774843, 0.8431240688998121
281, 0.023486540236319263, 0.9107564390210081
282, 0.12151289248412839, 0.9728255392564111
283, 0.10045775319238803, 0.9392557241532091
284, 0.11255093169202272, 0.7678838678600678
285, 0.09364059168400919, 0.9696422179012967
286, 0.08986648767538694, 0.9967321255564874
287, 0.10363457411060568, 0.9914659878728389
288, 0.10181102754846852, 0.9822972331272997
289, 0.12469495604522735, 0.842374076428542
290, 0.2299604041411278, 0.9956813612569738
291, 0.03208528925817462, 0.7034225704663111
292, 0.09132695308880484, 0.9765477918588801
293, 0.09824019212070295, 0.9734851430881697
294, 0.09565124667725748, 0.9861881707681134
295, 0.17089287703795591, 0.9645859145549613
296, 0.17416447237013694, 0.99115494699983
297, 0.0918210462474914, 0.9877352390397302
298, 0.11111915859613179, 0.9063914199592178
299, 0.10343131309141224, 0.9857538118826745
300, 0.18552861794963213, 0.9660299262881229
301, 0.09355072690747869, 0.9960277946110209
302, 0.02406619530059496, 0.7524151783739053
303, 0.09917339243235408, 0.9698273377862954
304, 0.10465576341428534, 0.9693113605603839
305, 0.09304007893108007, 0.9669088100401184
306, 0.09559562953092905, 0.9940285775807696
307, 0.10231898957079985, 0.9945231853190835
308, 0.09770140783271486, 0.9942296876183429
309, 0.17158934546734447, 0.9897432775723451
310, 0.17427225632371143, 0.9930337327251262
311, 0.09335008181145704, 0.956102324965348
312, 0.09156006729938537, 0.993537716821468
313, 0.019827340215173024, 0.7730406790291813
314, 0.10969339976293296, 0.974101103650654
315, 0.09562503960559758, 0.9760858464554922
316, 0.2114498675634017, 0.9971227341303859
317, 0.09289480983928317, 0.9953241171237626
318, 0.12438206170464748, 0.92317437181324
319, 0.13657460030001015, 0.9729752536826575
320, 0.12036578887331419, 0.9603412677056927
321, 0.09236700698180829, 0.9952306178258223
322, 0.09502715740668896, 0.9681209211589692
323, 0.09485257855670107, 0.8501872413181872
324, 0.017880985301356997, 0.9034342696976309
325, 0.1463060754036444, 0.9910192114316907
326, 0.09155492300605257, 0.9952344532024417
327, 0.10350006731856268, 0.9861572372449632
328, 0.09335016820776744, 0.9874976918909444
329, 0.10156164894268606, 0.9608901897885178
330, 0.10334531087621993, 0.9025279291870212
331, 0.09321458314019258, 0.9953108881428443
332, 0.09519520113449056, 0.9745536361121679
333, 0.1011929981020993, 0.9909887789431431
334, 0.16828519983964846, 0.9867267813276355
335, 0.05059402319448769, 0.7743291196828163
336, 0.015593311332926445, 0.9330792269539472
337, 0.12502038673999044, 0.969308403180787
338, 0.08980884677175965, 0.9921386583613274
339, 0.10009123207542739, 0.9860515057057334
340, 0.09519052137821424, 0.9902123165700529
341, 0.10538697017143472, 0.9501207697162153
342, 0.11120826255446191, 0.9992388809063569
343, 0.1120189403908201, 0.9993342677864958
344, 0.10914946712264667, 0.9969195868518443
345, 0.11355463483365309, 0.9933184085532022
346, 0.10483243310453517, 0.9878313928073461
347, 0.013944705202141049, 0.9123990880406441
348, 0.11066181306106845, 0.9707885365906979
349, 0.11574740712923011, 0.9948298149832216
350, 0.09786632625567664, 0.9960244343506452
351, 0.2462057081309539, 0.998972737503509
352, 0.1115271441816413, 0.9774733940453815
353, 0.10068343166907749, 0.9761101473576201
354, 0.0895214396088432, 0.9949525783923421
355, 0.10377607869548819, 0.9859259132563651
356, 0.09885366289066286, 0.9689260046560011
357, 0.10637586580548952, 0.9642335830486841
358, 0.07620534992050938, 0.9229113174653016
359, 0.15366063936988494, 0.886649810852831
360, 0.1361538870737391, 0.7143437625284035
361, 0.1102273211699945, 0.9721892912618622
362, 0.09071211152055819, 0.9793618243978891
363, 0.11001381797108965, 0.960283712172529
364, 0.1162990558088575, 0.9907771769967894
365, 0.09982182249607255, 0.9905198801076749
366, 0.09985882857125211, 0.990522801492434
367, 0.09764657437216262, 0.9917423833104367
368, 0.15276560731098066, 0.8960764849374566
369, 0.05802156857744981, 0.8317752337529152
370, 0.09977756106768378, 0.9858060856711593
371, 0.14183947447777417, 0.543818160302068
372, 0.09236831777097115, 0.9947306054001606
373, 0.09543278689694495, 0.9869730816835491
374, 0.09600128908798915, 0.9765192065436079
375, 0.09570160739144665, 0.9331776082260341
376, 0.10239987033049527, 0.8233073585766012
377, 0.1163611512684829, 0.9224482753660319
378, 0.02393940587255267, 0.42436724164967565
379, 0.03431900345048294, 0.19363092505133117
380, 0.06451584650738214, 0.9565877424134533
381, 0.08208454007504727, 0.4362943080854861
382, 0.10142215527913756, 0.04582077213051104
383, 0.02478909683508463, 0.5171348435274561
384, 0.08470177495822982, 0.20280203504138597
385, 0.06441760367422718, 0.24887987926073907
386, 0.08872584898770931, -0.12177823301096466
387, 0.12365235092680983, 0.552503224835087
388, 0.16135056407963108, 0.453581864070549
389, 0.08102152105470009, 0.10847828074447227
390, 0.33906433616371207, 0.30839909853302194
391, 0.0480730181010854, 0.928888219763753
392, 0.1623760889478875, 0.39257933548925045
393, 0.05775990544296317, 0.346864489414756
394, 0.05983726051180578, 0.4396716906593181
395, 0.03312966802593627, 0.02884914255049653
396, 0.015513857639542593, 0.37778270580252604
397, 0.015215543749371244, 0.6433694506524779
398, 0.10970803904307244, 0.39744127640799626
399, 0.4129703085420313, 0.7584865405489665
400, 0.04829967782608656, 0.23814496349697567
401, 0.030457203192849416, 0.8436104030003952
402, 0.04431929633675783, 0.9498284504991772
403, 0.053879124089759, 0.19754077136658227
404, 0.016295815825418974, 0.36261400320175763
405, 0.19166339561868134, 0.18479316405917853
406, 0.13815946409211663, 0.5538429558504129
407, 0.17202347349709235, 0.43598590399188847
408, 0.026133815292268995, 0.7121890163474345
409, 0.029480471229301548, 0.4772812277500584
410, 0.021372674221030123, 0.6965851849447287
411, 0.014324095758886334, 0.671682519907826
412, 0.01166122337236854, 0.8623859708264087
413, 0.06476242709810676, 0.9626458422268795
414, 0.014392945344705607, 0.8862617579383849
415, 0.014670144320222045, 0.8952259762639487
416, 0.009326793635805734, 0.9163426774897692
417, 0.015581519016916292, 0.9077490508475341
418, 0.014473470781517834, 0.7122035480823947
419, 0.04056012193852117, 0.9932941728134279
420, 0.029553429616394306, 0.7456184189981451
421, 0.013414986711276704, 0.8987869592212354
422, 0.015645041695318787, 0.8935481422903329
423, 0.02301111223477852, 0.698963884101345
424, 0.04407286893321346, 0.9259830272574868
425, 0.022988798796648637, 0.5327554248199271
426, 0.015851503615851116, 0.933765175990579
427, 0.017301284385974277, 0.7702215027935111
428, 0.01566276433317866, 0.6608065472427112
429, 0.017662539448982256, 0.8665617687833607
430, 0.026914537847988113, 0.4993379233003132
431, 0.027224800491832155, 0.9661551250513112
432, 0.017206306172855842, 0.9102750238521142
433, 0.031021320574030908, 0.626156977150943
434, 0.017255473740281514, 0.8185970166470404
435, 0.04835710524637321, 0.9473358769166346
436, 0.016943432329549615, 0.8266364599800082
437, 0.014986174840635047, 0.866030506197054
438, 0.022331681745380496, 0.886912450221201
439, 0.021476968972845924, 0.7702774279820603
440, 0.01191659707157032, 0.9705541208402227
441, 0.04529606746294119, 0.7474228465384672
442, 0.03190354027034858, 0.3848123920635959
443, 0.040039298341789896, 0.6101564372514119
444, 0.03210366865825211, 0.5471477869421072
445, 0.010577857428617585, 0.9098897230339056
446, 0.09651519576941892, 0.6262574125387086
447, 0.06733334832430851, 0.929813109492908
448, 0.016484872474825787, 0.928114093897199
449, 0.021988972885547367, 0.4653578102937519
450, 0.017861415054127725, 0.9030290025324881
451, 0.044538268350936834, 0.7024686654738032
452, 0.017702443036115116, 0.8846472306416868
453, 0.020762677566035462, 0.7395764452359579
454, 0.028882125173058847, 0.39496326961133266
455, 0.015076465222436558, 0.9120671158129335
456, 0.020771226368737846, 0.7527016678827129
457, 0.02200400696645635, 0.9107539870303055
458, 0.04459422045864061, 0.9556971750025574
459, 0.017078120585935403, 0.8668087729653132
460, 0.020933293833989994, 0.791364913154086
461, 0.021269554969259714, 0.5897269569885126
462, 0.01117988137360959, 0.9041715152861782
463, 0.018344179580344427, 0.8741358086052137
464, 0.02351124005579989, 0.6748866145133312
465, 0.013505358882132107, 0.9136237209705096
466, 0.018466336301295915, 0.8631280442416589
467, 0.023752204295703894, 0.4964946401023263
468, 0.02148259347409245, 0.7996499339619473
469, 0.047142421368606253, 0.9671677302401401
470, 0.03540756613845554, 0.6459913469594751
471, 0.010475976782436584, 0.7064361543182491
472, 0.01712707395013626, 0.8889486577463213
473, 0.02692640350632288, 0.4964891379960731
474, 0.01609696931540874, 0.815734102772927
475, 0.010457465225060216, 0.9451285403471446
476, 0.02025218431943942, 0.7537856919952108
477, 0.018366530401233764, 0.7628232873327415
478, 0.008921314308137555, 0.9001384706709901
479, 0.009577788751556121, 0.9373548159794158
480, 0.07446451106116883, 0.9615832637438018
481, 0.023671211600490474, 0.5990717081723201
482, 0.015612413691705171, 0.7972375878153706
483, 0.026156140921498455, 0.8037880912932656
484, 0.017161309618459037, 0.8462292022155535
485, 0.03650851350238325, 0.5838669371952687
486, 0.015169220520689301, 0.8519535246851617
487, 0.025821050793686906, 0.7194237543147729
488, 0.013608395734213068, 0.9438924397306949
489, 0.017888665100797334, 0.935335413545706
490, 0.02319801583102063, 0.775946449728825
491, 0.026190775400152383, 0.8256460057225461
492, 0.014944567099608943, 0.9163767844831424
493, 0.022309695267007962, 0.7348483124185636
494, 0.022273630404908654, 0.7439935827794554
495, 0.01051126651391335, 0.9783161886037768
496, 0.021146301468303222, 0.8567348542451318
497, 0.025787648350731458, 0.5201108894468349
498, 0.027412746193013596, 0.8072104867162149
499, 0.0904487381989753, 0.2519280653363728
500, 0.09248206254955527, 0.3640362261613015
501, 0.033985908435214165, 0.4337959790147937
502, 0.03621356873424948, 0.737115398725966
503, 0.025562590213384903, 0.7633225755560648
504, 0.014180347626415945, 0.8871998388279481
505, 0.017310222749930566, 0.8515597053842157
506, 0.03726697209775946, 0.6113844440977382
507, 0.014876050254300511, 0.8209167747446836
508, 0.10883563999772256, -0.04926917321440199
509, 0.055483538960269176, 0.28662116284238015
510, 0.04139238864929144, 0.5694095889521167
511, 0.15525868450245414, 0.4995829232647967
512, 0.06917894016679806, 0.9491281713660531
513, 0.028672117901662266, 0.7340856889930543
514, 0.10821441150290773, 0.928869123724727
515, 0.03771431184997333, 0.9222402672731078
516, 0.07448775900528873, 0.4721339794312063
517, 0.07484934980914504, 0.7950410700034215
518, 0.0765665870659335, 0.8114761084656777
519, 0.07312814005287326, 0.7143296554152292
520, 0.028446139141957722, 0.9134269866506801
521, 0.03025878100239351, 0.888131598296645
522, 0.029842293788656372, 0.9094150177877895
523, 0.08956783743776338, 0.8790560462715353
524, 0.027527560576817982, 0.8620315673263574
525, 0.025209569423837477, 0.9035469054915379
526, 0.023781061393134458, 0.7875904716597409
527, 0.03218447021452596, 0.8035109097054379
528, 0.03977035696804564, 0.781701636897933
529, 0.03009154685211796, 0.8779697541702578
530, 0.026596418049859055, 0.8640685430776377
531, 0.02721308022562411, 0.9145433230423581
532, 0.02085229346391875, 0.9130992239924385
533, 0.021830192092507326, 0.8714800458985612
534, 0.02296509510670296, 0.8465654546777319
535, 0.0478987669459358, 0.9189285808373124
536, 0.026440687827758727, 0.8798337332490808
537, 0.02748626995613833, 0.8546606673182617
538, 0.10073753488848723, 0.4806620836357285
539, 0.03911682199484682, 0.7638164020116269
540, 0.02191420234903096, 0.8753026530678245
541, 0.0467274638957214, 0.6845483340970102
542, 0.14516594226796423, 0.4936860448361301
543, 0.03248706728394925, 0.8519031198124523
544, 0.08591070922617454, 0.9131173915729857
545, 0.06350615787592954, 0.8555289276509987
546, 0.05024025700628624, 0.6935458058745775
547, 0.0844339292046571, 0.8900835051719753
548, 0.0641070968267264, 0.8646675846011329
549, 0.08691392509307899, 0.9005830886527316
550, 0.0887272922198819, 0.9095724821455442
551, 0.1639127482650519, 0.5883725177859286
552, 0.08546220812994426, 0.9069506897024577
553, 0.09203944460161732, 0.9313915818708945
554, 0.0824322777559736, 0.9151595604854628
555, 0.09706192443047426, 0.8782122546392978
556, 0.08522342306211751, 0.9266680951652216
557, 0.0493005623146023, 0.7288566261341936
558, 0.018221532672187193, 0.723624756970355
559, 0.08679056493272623, 0.9156095789654348
560, 0.09170620606855555, 0.9150063209411603
561, 0.10171073494188941, 0.9243832595410385
562, 0.14273096982699052, 0.7136748482458843
563, 0.09778979987201689, 0.9037541200463033
564, 0.06503198288870932, 0.899873398403986
565, 0.12916155172170843, 0.9658365710960854
566, 0.07207848249358491, 0.8597665447065876
567, 0.08421020689104121, 0.9056163568132127
568, 0.08784693891699953, 0.7556331925265327
569, 0.03967474344621578, 0.8547544139033965
570, 0.09525807566935067, 0.8875655371498696
571, 0.088833951485009, 0.913785672006606
572, 0.1227384626886238, 0.7381295307141964
573, 0.09030991374563468, 0.8734299800647849
574, 0.14027770866980407, 0.9348677622649282
575, 0.09848774918793285, 0.9094877409291982
576, 0.09428963235706525, 0.9089277207150939
577, 0.09930130326355245, 0.9184423893276544
578, 0.09079799224193648, 0.9256954854078498
579, 0.1406323014773265, 0.9379215940111953
580, 0.022951909851552602, 0.6661100014544141
581, 0.10380732338540276, 0.9191092280365796
582, 0.10664648098128042, 0.9593949391034051
583, 0.10072137594563486, 0.9260418901510369
584, 0.0952496162617392, 0.9333834654376685
585, 0.11215797267521485, 0.9082293282524443
586, 0.1003137411950032, 0.9128793544979428
587, 0.11045928560153691, 0.9231096766133836
588, 0.1119128831933682, 0.8907712236416232
589, 0.11654388126396581, 0.9711009317480315
590, 0.10465329878560281, 0.9066042502498493
591, 0.02994943745898638, 0.4673970140479766
592, 0.06949359636160064, 0.9982862882762805
593, 0.08437366983842765, 0.8092732791042943
594, 0.06650298760825704, 0.9913947623189969
595, 0.0684640134518208, 0.9981496321544993
596, 0.06701060817722583, 0.9977358528425516
597, 0.06798521527540564, 0.9965310583456162
598, 0.06919799949885408, 0.9947255097597419
599, 0.06847884148722244, 0.995964170172704
600, 0.1688408176122741, 0.9938139798405081
601, 0.06909650946818495, 0.997458471565945
602, 0.032668620772335885, 0.8281167220220986
603, 0.07096081455028218, 0.998256895251701
604, 0.0632000553764511, 0.9921541957586926
605, 0.06768531681340471, 0.996295691050536
606, 0.0691994954458093, 0.9973648043252161
607, 0.07080414414854416, 0.9981758842956154
608, 0.06618841101360758, 0.9934049466436596
609, 0.06727030241327667, 0.9963237568062078
610, 0.06853668270217796, 0.9963920625678805
611, 0.06918285892724979, 0.9972011602306247
612, 0.07365463159998388, 0.9958269267926758
613, 0.03345465152803323, 0.7035174046700716
614, 0.07244093018455547, 0.9795534737869662
615, 0.06334221311961408, 0.9894964766713452
616, 0.06582562016520205, 0.9943673147800898
617, 0.06401582690503646, 0.9916754256374671
618, 0.13322448098956055, 0.9930662664343427
619, 0.07190337945410556, 0.9980156176239388
620, 0.06430100209170338, 0.9949825626899456
621, 0.07434510525584156, 0.9967677353728432
622, 0.0768705525690202, 0.998565436898502
623, 0.0687568093506022, 0.9963783879930836
624, 0.04098577079311786, 0.8638574822629776
625, 0.06693231660855617, 0.9896007530844089
626, 0.07309329873120211, 0.9958853725627919
627, 0.07173244684270486, 0.9958543227670403
628, 0.0748171858156637, 0.9976417708539833
629, 0.0997548275654902, 0.9953344680299641
630, 0.06706958407680505, 0.9941479426911025
631, 0.17108085249294322, 0.9988150926386646
632, 0.08617989656608109, 0.9955218066325654
633, 0.06327710982448607, 0.8969673997397682
634, 0.08399524027463436, 0.9782013584688345
635, 0.03829419197093588, 0.6350256821211951
636, 0.09668823082323746, 0.9982379099298248
637, 0.06642291262064236, 0.9937482912726775
638, 0.06780926484007117, 0.9938995348873909
639, 0.06753162135277042, 0.9949253728894547
640, 0.07820963166180883, 0.9940710599180583
641, 0.06743972163629565, 0.9941533156718532
642, 0.06645823179924058, 0.9945659438401432
643, 0.0646468587124569, 0.9918671556725327
644, 0.07367877147714091, 0.9945382985357014
645, 0.07966726597801929, 0.9622875663879501
646, 0.0216839079684544, 0.7877382008958407
647, 0.09110259642791305, 0.9975506707009418
648, 0.07327709667670478, 0.9951647274371962
649, 0.07313998081510914, 0.9954656327962377
650, 0.127994074456079, 0.9952892936131952
651, 0.13620851368099476, 0.9856783684054534
652, 0.10274404631280457, 0.9532540456839516
653, 0.06278704939287154, 0.9959371549886405
654, 0.0704433672223154, 0.9964902503974156
655, 0.07071462537363757, 0.9973687951929349
656, 0.07240415204903895, 0.9968137258360577
657, 0.02309878263581556, 0.9144335157423595
658, 0.06941972593616351, 0.9892452456030225
659, 0.06705152736131152, 0.9954099494236581
660, 0.07116991234116089, 0.9951282333721485
661, 0.0672176759766909, 0.9853925301612033
662, 0.06922171365974829, 0.9908961270767684
663, 0.06426393821849927, 0.9844022854539385
664, 0.07939727397469502, 0.974486880077551
665, 0.09541332836617317, 0.9974627645102307
666, 0.06435509808319312, 0.984167675709181
667, 0.06303223474151719, 0.9838056121225452
668, 0.04871828281752769, 0.5998419053391719
669, 0.02052943063833664, 0.8780469219111862
670, 0.060532030915539374, 0.9805553907510283
671, 0.06595595495300456, 0.9786246546652295
672, 0.08049069074681697, 0.9516691615306074
673, 0.09541020481650296, 0.9935704774820995
674, 0.06238257924763312, 0.9866915148948461
675, 0.0644738382561096, 0.9508695112581218
676, 0.06386029847651856, 0.9925475516555775
677, 0.0659627518081576, 0.9933641688184716
678, 0.1666894657169838, 0.7447382836130092
679, 0.06695789336076129, 0.9871543686012421
680, 0.018103859870824277, 0.9274222000944068
681, 0.07439563086013976, 0.892907703041624
682, 0.1338072550648045, 0.6524953901744432
683, 0.06713507881535652, 0.9214686567611817
684, 0.1623827411119675, 0.9948296311204302
685, 0.08641004583666077, 0.9646622191187046
686, 0.11907637145749166, 0.9055480281558177
687, 0.11372507708585314, 0.9991076198915391
688, 0.06729890585833435, 0.9963345334715517
689, 0.06769103575536821, 0.996032705759505
690, 0.0716196106488683, 0.9968218859067633
691, 0.06867342923204056, 0.3613032661935789
692, 0.03308908448183873, 0.5853942371065542
693, 0.020506972154919506, 0.9376077552550474
694, 0.02011943022416295, 0.9298469020314111
695, 0.017941021779276235, 0.9331096066963354
696, 0.024049633327667977, 0.8851674420315234
697, 0.02093479016486285, 0.9092310565891722
698, 0.018559355583028004, 0.903540605687932
699, 0.08586736813517064, 0.31415395471878604
700, 0.030022553426606167, 0.8498822285143828
701, 0.02309874958037462, 0.87520068046949
702, 0.020987207081909397, 0.9229768823171558
703, 0.04177583630166871, 0.7352644183610662
704, 0.03085467272060284, 0.8933223086501949
705, 0.02253059721202474, 0.9270579241021304
706, 0.029873804810136625, 0.9531586524732779
707, 0.049139607846265004, 0.7563462195926678
708, 0.025731353366727546, 0.8540359782603019
709, 0.04079942146864309, 0.8460732937694275
710, 0.0441262517165152, 0.7491612493474898
711, 0.05254294277052005, 0.9488352657378268
712, 0.06377765057529268, 0.9575744107718867
713, 0.04870844159595375, 0.9360800203447946
714, 0.04396228764559039, 0.9348080614972634
715, 0.07564838657598423, 0.8724410987751203
716, 0.053880750509361273, 0.6301244975871523
717, 0.054656366245815345, 0.9363952568425009
718, 0.07040184104636846, 0.9432981863176664
719, 0.060974755952547186, 0.9394201802671038
720, 0.04891423205730816, 0.9270101380895608
721, 0.045825667187341566, 0.7908765430440403
722, 0.06115061715889124, 0.8755570814234797
723, 0.05163962099954953, 0.9470610671583004
724, 0.04405925901474013, 0.9479304787024756
725, 0.05506579412030675, 0.9442360244115673
726, 0.04734210335565978, 0.9339007815429037
727, 0.02231298918673728, 0.6991762032698408
728, 0.03336071349094371, 0.8161593591541975
729, 0.028170088494683727, 0.7157702342154773
730, 0.02600698405860046, 0.7085418012206809
731, 0.01842306488820515, 0.4999446603935435
732, 0.030175483326522867, 0.7390145220174463
733, 0.07060034787312729, 0.5345217650674676
734, 0.023232088628176762, 0.739278381000881
735, 0.026037066786842297, 0.6645178946180089
736, 0.017234444946670608, 0.5182404494922654
737, 0.028544272894426986, 0.7291588125812375
738, 0.030515861388719947, 0.5453136751297727
739, 0.039107498364530535, 0.8332516839279522
740, 0.020988925400993196, 0.6902570482199949
741, 0.020783009679274888, 0.8343831557902662
742, 0.03251640820088846, 0.8141253796732151
743, 0.02893668379676722, 0.7126184485021585
744, 0.07477016427421984, 0.5295942137376435
745, 0.019051520887523557, 0.5661482197208281
746, 0.01743967524725842, 0.59978163388156
747, 0.029995551426055495, 0.8078418548473449
748, 0.01866844896829867, 0.6613263130447802
749, 0.024874668471088626, 0.7706157665299331
750, 0.021021943457585207, 0.5016145105378876
751, 0.027565441897328225, 0.8141101416322493
752, 0.02186467453863664, 0.5450024899561685
753, 0.01851583948488084, 0.4021769313274328
754, 0.0174143494300388, 0.4535815007793817
755, 0.09755080750258095, 0.3397808589717539
756, 0.024603132737918535, 0.822385323385719
757, 0.03045913852432395, 0.8043598126496653
758, 0.10147174328032309, 0.5975626592637766
759, 0.1522051357837336, 0.9230276595811886
760, 0.0736479748987533, 0.7503723623949998
761, 0.19164677131433003, 0.9803409810626873
762, 0.07039498086546546, 0.8846344789230992
763, 0.08158695667862732, 0.5771630703094917
764, 0.07105582206430253, 0.6209799960756122
765, 0.07428135240690298, 0.7281911753117076
766, 0.0414444298615003, 0.4798017126227204
767, 0.07059593515434369, 0.4148070038281285
768, 0.030590531867258967, 0.34263810624265656
769, 0.03213811591588054, 0.5297159756833392
770, 0.08310171312004277, 0.9210899592934938
771, 0.08464456408838186, 0.9085196879432178
772, 0.01447919562645161, 0.9375723602684605
773, 0.009665844708336788, 0.9349064888968524
774, 0.011847225898206864, 0.8867405182199726
775, 0.013303658666091137, 0.8433248372990056
776, 0.01642556125217956, 0.9570681943616446
777, 0.021977265797811087, 0.981588444579589
778, 0.015119683759421335, 0.8996561136160327
779, 0.023444991417592355, 0.7888434782987004
780, 0.03023496481527683, 0.6906230447368829
781, 0.01394149182308684, 0.9468242743108585
782, 0.00874805408407309, 0.9396185101531893
783, 0.014112909561561514, 0.9504709355002506
784, 0.017855232440062443, 0.8657977024762528
785, 0.02421000840434256, 0.6255402032676585
786, 0.011736799666673469, 0.9084676226882256
787, 0.01894379016391713, 0.7098232313682447
788, 0.05875660624183552, 0.7900566856196582
789, 0.0132100898838081, 0.8744729173460892
790, 0.022933906302915794, 0.8988444452020238
791, 0.032199767192271286, 0.7249572617636832
792, 0.014789761626231282, 0.9522016528171932
793, 0.006747439741629418, 0.9651298973783402
794, 0.008387450386333203, 0.9354078183325685
795, 0.014704374409515815, 0.9339411458813294
796, 0.015869878316725542, 0.9311800980569038
797, 0.05375760404897124, 0.8759205445668331
798, 0.014334011455399778, 0.8899884706901198
799, 0.03306773233201175, 0.9178475782304684
800, 0.016292884957986035, 0.9527575217588878
801, 0.019549166448894144, 0.7517618209737502
802, 0.01817248436235353, 0.8436796623629208
803, 0.0102413019776301, 0.9656795450528151
804, 0.013665241257588629, 0.9406505148480898
805, 0.01712168329697179, 0.9436610927264037
806, 0.013093680380466963, 0.9606883880529941
807, 0.04800856824585736, 0.4836223358413363
808, 0.019117912164679004, 0.884115978238709
809, 0.01922526931082888, 0.8369964232443778
810, 0.0644996473170338, 0.31817002864108856
811, 0.059401414031574874, 0.7406749370478062
812, 0.07367487558213186, 0.305303266107911
813, 0.06724002391767916, 0.7548762118893144
814, 0.07022752030488963, 0.5531721028285438
815, 0.0765618093209495, 0.6431318741398413
816, 0.07384944380346653, 0.5358301613323032
817, 0.0649825157630337, 0.7184949638084898
818, 0.09238618456307898, 0.6575688348783288
819, 0.06963364322831053, 0.6888198115551885
820, 0.05609046009546415, 0.8995010279997262
821, 0.064993362935061, 0.43494607338396646
822, 0.08294197378896086, 0.9889750995740361
823, 0.1316524276123261, 0.986985641048348
824, 0.05453963032066655, 0.8172593456636233
825, 0.0714136969095692, 0.7059648046049902
826, 0.0796789561970303, 0.8287089157267987
827, 0.09222020907588291, 0.491355387584935
828, 0.09897893674470798, 0.4133954579597426
829, 0.06417936186126885, 0.5323361155508611
830, 0.029218302403167175, 0.7757508201729313
831, 0.03105259296747936, 0.7973309636850099
832, 0.11106840883947872, 0.44832778492001624
833, 0.03434651418384111, 0.7128676293611224
834, 0.021478890454680755, 0.859292665691396
835, 0.032926369288455604, 0.5608892715110094
836, 0.04548345738874834, 0.6534808802148145
837, 0.15565940672125714, 0.9830251070138694
838, 0.07154717490075761, 0.9740988094975327
839, 0.07040281774514125, 0.975815585975573
840, 0.0726612167000049, 0.9647779930949425
841, 0.0861288988602265, 0.9656854433116633
842, 0.0724126594683304, 0.9519358015818555
843, 0.07257305297949557, 0.5107179907748606
844, 0.06208545268562284, -0.06641930652974262
845, 0.08008306780789316, 0.9574757850842888
846, 0.0864640008875729, 0.9646676546382917
847, 0.07280283409881716, 0.9748460948542464
848, 0.08242902104651828, 0.9217747428226312
849, 0.08030313022636222, 0.9161956081850531
850, 0.07198727102411377, 0.9521866392942727
851, 0.029139658889148202, 0.4754700436764102
852, 0.023883522327730902, 0.7776210977145328
853, 0.0379674947646814, 0.8726061109924728
854, 0.03478986703445621, 0.7286336387168518
855, 0.050052306378128845, 0.328166034392209
856, 0.02855106218556321, 0.8797540345960569
857, 0.025075555427538292, 0.8110175346215203
858, 0.034619565069988506, 0.7897478519730275
859, 0.035198559500295205, 0.6648589464718975
860, 0.027434522291817726, 0.5446392200804862
861, 0.05146701657755573, 0.7917740829410378
862, 0.025023911933971594, 0.7157493868660543
863, 0.022398227121402627, 0.7549213579531387
864, 0.1252107061710179, 0.06823986471061863
865, 0.11751308959639682, 0.13791600933539105
866, 0.04857331090802913, 0.14505621290537407
867, 0.10761408337866105, 0.02276176217277542
868, 0.09716575715744932, 0.30376851865840715
869, 0.08408649444641446, 0.4090978528389621
870, 0.09512746827796514, 0.15251600074021265
871, 0.0964499383993468, 0.27706338337431213
872, 0.08764246012970166, 0.29972512552958885
873, 0.1162941849562078, 0.28146590753064726
874, 0.06976127083703912, 0.12133585250462389
875, 0.1072105274252844, 0.31198459053099353
876, 0.07673244986675828, 0.26029796807816286
877, 0.05551803615528903, 0.020500102187536944
878, 0.06858724687715767, 0.11872993991761957
879, 0.11459881131502689, 0.10358209068836968
880, 0.07357339718105153, 0.2555543878295221
881, 0.11585934253964968, 0.5363233361823667
882, 0.12512934486948607, 0.21721199563052096
883, 0.14198617121277515, 0.012205957242580077
884, 0.09640337671633431, -0.03728193983020787
885, 0.09720313062520568, 0.2883018929055453
886, 0.24747617746388206, 0.25249408157620057
887, 0.1089464150076927, 0.016717735486120145
888, 0.12705960551365097, 0.227866694677476
889, 0.10211020781259653, 0.12784878553699824
890, 0.08842487407916572, -0.002983593740089279
891, 0.10052592664383182, 0.09643483971493147
892, 0.09958359360757192, 0.7888117828203656
893, 0.08423185473363375, 0.5054682705597665
894, 0.10245424028474379, 0.14774823127284017
895, 0.10601568470736483, 0.22140621375299968
896, 0.07970572779088839, 0.5340800718450536
897, 0.03275980457162516, 0.9072791276569764
898, 0.05198772497400447, 0.9465613165310558
899, 0.09713516145018777, -0.22610502100770394
900, 0.045402159166779865, 0.5007374973310538
901, 0.03498953537903174, 0.8626865230557985
902, 0.02538150846059755, 0.8520178977826288
903, 0.0487229409533064, 0.49552295654972783
904, 0.029084342935100933, 0.7034183012065084
905, 0.04801703018862781, 0.8533509148138737
906, 0.0311727893913969, 0.7879355484419116
907, 0.030550719650085066, 0.7322052096735101
908, 0.04416135776022061, 0.769838754533468
909, 0.03216041029355669, 0.8500697501512162
910, 0.07938018625166364, 0.1379938755812953
911, 0.026763106434094866, 0.8130280146277788
912, 0.047987724386957684, 0.46296353175577265
913, 0.03474372026863757, 0.7608972221401902
914, 0.018249215570892312, 0.8989815344755236
915, 0.06958991981078742, 0.7962741922719523
916, 0.03848289417199618, 0.9152231536086962
917, 0.060486416209366456, 0.9675126568171665
918, 0.030239022996831656, 0.0789751029186967
919, 0.05308012820488643, 0.819896105857942
920, 0.08079997645980491, 0.9382861224006014
921, 0.09575191102386957, 0.43710792769398515
922, 0.052251725699119476, 0.8774074226660666
923, 0.047068117205103226, 0.9031658767630315
924, 0.0531584791404794, 0.5934940288520703
925, 0.05768853212962626, 0.7580790143336349
926, 0.11664624757663994, 0.9276135003114125
927, 0.05276996226641511, 0.21593965707299254
928, 0.06711017470406506, 0.7657583066212064
929, 0.04718982528764479, 0.9199567628129095
930, 0.05607548311873945, 0.8673807494936159
931, 0.04617936671032224, 0.7083729949203468
932, 0.08537091504010533, 0.26422921362950724
933, 0.04754590636681434, 0.8698707441046403
934, 0.05318755049703541, 0.6917088219793219
935, 0.06353364148843338, 0.8586289798554503
936, 0.06375914283299573, 0.7766390031914405
937, 0.04765233498811759, 0.9145409620336389
938, 0.04520513780744014, 0.870182728717388
939, 0.05381790091891534, 0.848140331949663
940, 0.07394862437679338, 0.9756932222767358
941, 0.024184728783929053, 0.7870205495741731
942, 0.07598796642340118, 0.8955572063694592
943, 0.03944272827428406, 0.23909916986823182
944, 0.032348691355836845, 0.14866484069009844
945, 0.07891775317172839, 0.8360033046011472
946, 0.05471132533077464, 0.855891516714755
947, 0.032510496014766424, 0.5316414659151558
948, 0.044279720545831305, 0.3811492435165429
949, 0.06598500947182859, 0.5237254664832411
950, 0.03084365213168956, 0.5199484088812424
951, 0.03201166981499815, 0.5264785234840732
952, 0.03319429442489996, 0.6562563346349618
953, 0.04666079209138538, 0.3638317063740145
954, 0.0767850245300107, 0.14110326825774527
955, 0.06254033864431864, 0.36840914543396
956, 0.1245511541739113, 0.33048344026480625
957, 0.46478777264619986, -0.0023474725931913465
958, 0.03142857863611486, 0.6827799281606199
959, 0.04048941939862523, 0.5917045869914482
960, 0.033790746842646636, 0.5567313099655912
961, 0.02826724632887372, 0.6324975749828554
962, 0.03558918380839515, 0.7826213185857527
963, 0.02958718185168749, 0.6304102829297734
964, 0.031884490674695044, 0.5341501697057325
965, 0.035308341497477025, 0.8025889814281304
966, 0.0693014867014879, 0.5948136614289465
967, 0.03249656647748109, 0.4596930461293436
968, 0.03337047223939858, 0.6192958561397729
969, 0.03900950579167797, 0.40321600754473286
970, 0.05277932020096321, 0.35999312913615256
971, 0.03128532142294741, 0.6135559121843287
972, 0.04029943769780173, 0.7190677562993504
973, 0.03299200914883355, 0.5926443133000422
974, 0.037911386327894155, 0.3927179155566022
975, 0.03782502300948619, 0.8143095921521899
976, 0.04587225611060263, 0.40701415758656506
977, 0.06595484251558238, 0.4324317334353192
978, 0.10022287964904494, 0.37158075937658164
979, 0.08790308050973561, 0.3255310856959218
980, 0.12493113323365215, 0.39598873710046856
981, 0.16823247659319265, 0.32192475501108475
982, 0.05797505991350869, 0.8613436431177983
983, 0.0563331315231368, 0.5693059890835843
984, 0.13357236694415978, 0.5052315699620185
985, 0.15415407063436723, 0.22503521219596834
986, 0.1934469464345677, 0.174536746686279
987, 0.16538005087569366, 0.3923644973162369
988, 0.048815225026587444, 0.06306727069269985
989, 0.08829532308577093, 0.8362464774219711
990, 0.05342178548635886, 0.9532485676098199
991, 0.05613312705191758, 0.9483717515051834
992, 0.05243418294246291, 0.9135085404404387
993, 0.05747843684140197, 0.8810262425306825
994, 0.03427108695346282, 0.9317538921858265
995, 0.0814451544135335, 0.9836219577802272
996, 0.04432386049258688, 0.9326268346306393
997, 0.04993329583390685, 0.842500300106596
998, 0.05804487359223902, 0.9360044927549497
999, 0.07207547791517761, 0.2610253739277373
1000, 0.04676116656861919, 0.89973647726318
1001, 0.03919438674020108, 0.9140612609910048
1002, 0.07029262593397755, 0.799061105402233
1003, 0.04557935722993932, 0.9517752536262847
1004, 0.07063281278695287, 0.7381258041527169
1005, 0.06072030805066, 0.8890945320361017
1006, 0.043214080777783256, 0.9572922235344923
1007, 0.045937994586399744, 0.9394593439282661
1008, 0.05351232502029186, 0.9202705896603679
1009, 0.06030266080848173, 0.9307465405353051
1010, 0.0841945132337038, 0.4182233899288567
1011, 0.05846611900885957, 0.9757609698074567
1012, 0.07881902800762941, 0.9413044849963468
1013, 0.04427346204290357, 0.9242966913497239
1014, 0.05619684514202346, 0.8627497076365491
1015, 0.038208269232533565, 0.9228012996856938
1016, 0.04910600225445222, 0.8729247888677427
1017, 0.04583239742627459, 0.8988282334220099
1018, 0.04574110559257316, 0.8899052093156975
1019, 0.04558503083240827, 0.9034770196013477
1020, 0.0594178832384148, 0.902130164298983
1021, 0.08080847830722801, 0.1889586357204151
1022, 0.054589436734283174, 0.9627752135105738
1023, 0.04431598372924421, 0.9306353864795955
1024, 0.06668502193485737, 0.7209858078522511
1025, 0.08265648594201319, 0.4045840684871702
1026, 0.09665753740631847, 0.9119649141819409
1027, 0.09148362977265118, 0.32342123407263496
1028, 0.05670183893195148, 0.7617728982129238
1029, 0.060066343882842196, 0.8971342062349681
1030, 0.0682218289614, 0.8971594825940286
1031, 0.05869433106281168, 0.8991798853985815
1032, 0.13642606745717195, 0.8847409208602734
1033, 0.07492376394736816, 0.7395662805555184
1034, 0.06927332372164084, 0.9328878714370461
1035, 0.05385792875646804, 0.8118618357568305
1036, 0.05186505633546139, 0.9205116298023557
1037, 0.06469117692953172, 0.8041791068373138
1038, 0.0658672898824755, 0.8964481117045396
1039, 0.05719926670296333, 0.9048316405334871
1040, 0.06364430794325476, 0.9278148892650395
1041, 0.12045661988404943, 0.19340216265486207
1042, 0.07039560730303931, 0.6024775089353807
1043, 0.15581851045727813, 0.3229947760353518
1044, 0.05655835675778577, 0.7709919871988391
1045, 0.05681291277511528, 0.773613397315552
1046, 0.06075892331956107, 0.7468999872627139
1047, 0.08347887519276119, 0.7712141550161249
1048, 0.07021499456743933, 0.8039021649565021
1049, 0.07352781209991796, 0.7412430096140867
1050, 0.043783289523820546, 0.9308799648114234
1051, 0.04066328095590323, 0.8840999328536443
1052, 0.04558018364963011, 0.8968277989841317
1053, 0.044868898806612385, 0.9361815279835659
1054, 0.09603364867340024, 0.14806284631539332
1055, 0.04882702986935289, 0.8443226600412744
1056, 0.04497982000230208, 0.9530358578721294
1057, 0.047521188363446494, 0.9200619179352969
1058, 0.04571212504542572, 0.8905074868838065
1059, 0.047213325638066954, 0.9365021223743546
1060, 0.04485604886392461, 0.9158864653449565
1061, 0.04261181950919973, 0.858394383519496
1062, 0.04694358862728943, 0.936903598222212
1063, 0.027606362713064977, 0.4601667203761689
1064, 0.012756557182198185, 0.6217399839539413
1065, 0.08431907191865617, 0.32762440598050335
1066, 0.09377175305052, 0.12005197327825184
1067, 0.011711941947067605, 0.7938582319221879
1068, 0.010508858369188537, 0.7872850008884177
1069, 0.019888832362062007, 0.5194649232426358
1070, 0.0231535662358155, 0.695953117791507
1071, 0.012416588272412085, 0.27170839162233873
1072, 0.013144800117126513, 0.31841326079019616
1073, 0.016116494711388395, 0.6039161560330564
1074, 0.015076731341682888, 0.8693159921247451
1075, 0.010787938535319432, 0.7764969213450823
1076, 0.013148200885403208, 0.36419586165787493
1077, 0.09393486006060421, 0.6014935098507312
1078, 0.012322711238306729, 0.34539058635297853
1079, 0.009567046082105577, 0.8561313139990839
1080, 0.013339981687314081, 0.7424626991633407
1081, 0.010476224476729428, 0.6885526939298794
1082, 0.011594885141386782, 0.7469134992408873
1083, 0.009575970183808766, 0.681388814146368
1084, 0.011086626804462114, 0.3968814657724483
1085, 0.008554546555693779, 0.8129502626954848
1086, 0.0106027857551981, 0.6000012816888096
1087, 0.010047321353690521, 0.7910960507055698
1088, 0.08655711786154802, 0.5154723922568466
1089, 0.013264056836410007, 0.4624433549857674
1090, 0.0355833055849618, -0.45451559399662544
1091, 0.02733134424495301, 0.8362750464667883
1092, 0.01988467795609425, 0.1352863988564866
1093, 0.01508161278502991, 0.675956306414113
1094, 0.011391020589160306, 0.5021679483758377
1095, 0.0100922618942321, 0.6314384514896634
1096, 0.010304353347897845, 0.5981548092985352
1097, 0.022693689579622298, 0.8354733935276082
1098, 0.02582732446084615, 0.9234164642237697
1099, 0.08317032812376098, -0.0339673714570422
1100, 0.020010275164459485, 0.9057103957490037
1101, 0.02792990354327904, 0.8828704414341422
1102, 0.026592644266773366, 0.9456234028545658
1103, 0.02446307084730201, 0.9184880561319471
1104, 0.025166912233725865, 0.9241060895769333
1105, 0.02582765137300339, 0.8970995947951822
1106, 0.023095790897706078, 0.9203851835628862
1107, 0.02880850375512209, 0.9489945427916804
1108, 0.09036814493184597, 0.9826164331563956
1109, 0.025320775679615253, 0.8865054843253101
1110, 0.11730847204749849, 0.018314637709274374
1111, 0.03365401717346363, 0.8562951879408263
1112, 0.03337906856494661, 0.9070691489041887
1113, 0.020787351790853326, 0.8873670108880365
1114, 0.03011258695057282, 0.8973479878667203
1115, 0.02935437934840725, 0.9117293741931516
1116, 0.028235515905699213, 0.9291061332566374
1117, 0.023423484151752168, 0.9656352824149277
1118, 0.042972843619759636, 0.9498978695425516
1119, 0.020596783069909894, 0.9477140780955502
1120, 0.028620850544049586, 0.9226278546602462
1121, 0.11112551981891328, 0.1548153984773124
1122, 0.02750537227351796, 0.9211892629535465
1123, 0.0235775399586926, 0.8946288132538457
1124, 0.052021260120254584, 0.9505676376311072
1125, 0.07313736771859428, 0.8820913835629145
1126, 0.02894662805252467, 0.7651041960373374
1127, 0.0501209214357898, 0.9323285304422941
1128, 0.030405632591774055, 0.6750395698223595
1129, 0.03665493950552014, 0.8441167965828588
1130, 0.014399540011582203, 0.23825555655700076
1131, 0.016896809867487136, 0.3671611985256028
1132, 0.13804282757558553, 0.8206817994485079
1133, 0.010956395430792461, 0.8209780588114859
1134, 0.01509924323278917, 0.44408299164623644
1135, 0.017730069073149102, 0.5823723328857616
1136, 0.013557243804689222, 0.6544209704878854
1137, 0.013456579169550497, 0.410237296656622
1138, 0.017122948198281033, 0.5510752582398526
1139, 0.014607585290488757, 0.5217186632468588
1140, 0.01599241131822812, 0.38516935993105644
1141, 0.010459159263948192, 0.6701193822625691
1142, 0.015422551845063972, 0.4964138303999073
1143, 0.09197272071905488, 0.5952419855308464
1144, 0.013465221959449152, 0.5531896655143659
1145, 0.01708361653557723, 0.2820183884194557
1146, 0.015046829352356676, 0.6067249075152357
1147, 0.11309609696444584, 0.9299328534745033
1148, 0.101381028713979, 0.9539537238057932
1149, 0.10809371334444287, 0.9563419232939786
1150, 0.07473408097472509, 0.9505141046208772
1151, 0.11794108794301533, 0.7764446808667467
1152, 0.08439721320957834, 0.945607892279801
1153, 0.10570659105252682, 0.9580304898250964
1154, 0.06722026606839124, 0.3191154791082954
1155, 0.09284129001726284, 0.958393428046531
1156, 0.10433045593911558, 0.951677728452512
1157, 0.14427146761596182, 0.9825687198087623
1158, 0.1423829285084621, 0.9762334606735114
1159, 0.10676694555722417, 0.9697407273387979
1160, 0.04990569947173216, 0.9645486461482431
1161, 0.05317745941412224, 0.9654901886386587
1162, 0.06099000241000395, 0.9749417893805556
1163, 0.05313308939827104, 0.7626050923141874
1164, 0.03708460406074665, 0.8128458392198525
1165, 0.09812546986675487, 0.3227228498194922
1166, 0.06537943970828196, 0.5907336643372425
1167, 0.14245611212356482, 0.7701581896052168
1168, 0.060871113446360925, 0.6116174296350922
1169, 0.17379840107260966, 0.4832515351567051
1170, 0.012382926611202013, 0.7022179401311035
1171, 0.03004595854648476, -0.22158783090795248
1172, 0.022594750619194033, 0.5390073076730397
1173, 0.0131709280902714, 0.5252334858268373
1174, 0.031416066064537736, -0.1887952190993958
1175, 0.07443815936079864, 0.4235000632906095
1176, 0.09823333753588506, -0.014708875747942968
1177, 0.07761746223456217, 0.14190919498716875
1178, 0.0868062165224214, 0.9686681815269853
1179, 0.06426348314951615, 0.9827303728490505
1180, 0.04360403166184882, 0.869815832313517
1181, 0.0896451215796722, 0.888141783137442
1182, 0.08889634898796069, 0.8280055215962856
1183, 0.09077622875010911, 0.9027839440499685
1184, 0.09415251171853163, 0.829210384623031
1185, 0.1006431887096807, 0.8177683253260166
1186, 0.12317532046186219, 0.7834172411504072
1187, 0.09380896096559921, 0.8945711542009968
1188, 0.09673008466953141, 0.07095253096133497
1189, 0.09346834912045196, 0.8633923953336446
1190, 0.0856086572220798, 0.873876054840903
1191, 0.033804831921198285, 0.9718167386551588
1192, 0.042777974701854474, 0.8360071064488208
1193, 0.018660600823374868, 0.8318851496291089
1194, 0.08232202231991383, 0.29760601858632457
1195, 0.043041747992229276, 0.44296294159065397
1196, 0.21371745483568394, 0.08822373502496361
1197, 0.097732175943696, -0.01473046379384297
1198, 0.13280975060010913, 0.5355750447286406
1199, 0.0784533751477814, 0.3836349297749209
1200, 0.2906046262886912, 0.2823834881123206
1201, 0.11597345429304146, 0.2716361403692627
1202, 0.1434289263933584, 0.22769339697277607
1203, 0.13761810479844236, -0.16396108415654365
1204, 0.029809315301276475, 0.692539412592865
1205, 0.04423053150839327, 0.38340250264678044
1206, 0.04420109784570679, 0.5144324064961978
1207, 0.023968462671049604, 0.5946676713018926
1208, 0.09782295661617242, 0.28937258822387896
1209, 0.014489665866292545, 0.6807857548344131
1210, 0.06563279916554343, 0.5677232334077054
1211, 0.040648139273033526, 0.5157916016769184
1212, 0.04323943020217282, 0.5864832062465575
1213, 0.07887492215790888, 0.07425380628056949
1214, 0.021123109603024964, 0.6348720864087387
1215, 0.016826393448075995, 0.7687162425702976
1216, 0.029739998118571545, 0.6364437631846571
1217, 0.05649198896407271, -0.08797387478260939
1218, 0.061034087753611264, 0.47906653543692385
1219, 0.0356338711658126, 0.5585747888262589
1220, 0.029172296787527207, 0.23124169201384037
1221, 0.09915112426739896, 0.26093563081427606
1222, 0.016182840117527825, 0.7339835270262691
1223, 0.01694488379422094, 0.74686575948786
1224, 0.02663104175136449, 0.37970693775192094
1225, 0.015060824093927819, 0.8083414572311103
1226, 0.018243902161815873, 0.7459836205244397
1227, 0.14971924210470353, 0.4228653167186506
1228, 0.07116259646423256, 0.32727466677965616
1229, 0.10765331685801514, 0.6375379033060549
1230, 0.036536583557515295, 0.19258300082253943
1231, 0.040617465305836487, 0.4196875081324124
1232, 0.10725370216730479, 0.14040491278733885
1233, 0.04787159918514678, 0.1577357582235543
1234, 0.03833021474531292, 0.08658601782284997
1235, 0.04852208009513974, 0.4709088252339647
1236, 0.05127847259677304, 0.015654162463990557
1237, 0.04860397816591176, 0.46150773414780266
1238, 0.05439544349398723, 0.13332433607826377
1239, 0.08978160986788632, 0.09030831236202491
1240, 0.11933816026998531, 0.4049856860662153
1241, 0.14014967112068313, 0.27987112663377567
1242, 0.15339673097221213, 0.12906595103844185
1243, 0.0901071615154866, 0.2690948812863684
1244, 0.19716645987774647, 0.5326123322968073
1245, 0.21763910490997018, 0.588960602782058
1246, 0.12156913746471992, 0.5758006349739315
1247, 0.07562710004850617, 0.9598326043545425
1248, 0.10158088057717707, 0.8097154690821889
1249, 0.09116943015422897, 0.5161127124075904
1250, 0.0633234031218224, 0.2792450913331249
1251, 0.017787532153740043, 0.33499163457546927
1252, 0.09076812399802592, 0.2302904058446737
1253, 0.11141393206741809, 0.6486985334331807
1254, 0.10395331822966239, 0.7918262025268116
1255, 0.4400637792646741, 0.07858771579777807
1256, 0.20452348382733868, -0.21637021411345475
1257, 0.012557744749427427, 0.7032204339758588
1258, 0.021797949286944077, 0.7158897526185101
1259, 0.016553187281384857, 0.5129680586709989
1260, 0.029718511914130226, 0.2330688526322006
1261, 0.020417121909504933, 0.4587416652598691
1262, 0.02458420163299667, 0.5053417558126643
1263, 0.06816649827532732, 0.33495760027639415
1264, 0.04828400760170964, 0.038463705240517815
1265, 0.08713283153582414, 0.4206264489609238
1266, 0.06579153131840167, 0.1337792228482367
1267, 0.026071817531689186, 0.7990159771404524
1268, 0.02646531000006877, 0.7661925594529814
1269, 0.2445984100295918, -0.1787869634830726
1270, 0.02036085278503551, 0.916475560454078
1271, 0.027511047907223977, 0.6511243253151944
1272, 0.015867868088420126, 0.9532656763450329
1273, 0.02660833187553278, 0.8035679670134885
1274, 0.1629500248689907, 0.39540922361292374
1275, 0.0750819228339643, 0.2930122271805744
1276, 0.21645696563533204, 0.3820504536627035
1277, 0.031178303506137033, 0.7494903883972537
1278, 0.03514449749259089, 0.8760933208199649
1279, 0.13350084394286155, 0.4152368834600356
1280, 0.01811210545538444, 0.933975672298271
1281, 0.017836862892039975, 0.8851652163692136
1282, 0.008909217667337736, 0.9495855795733763
1283, 0.015942811902375776, 0.9293307912634241
1284, 0.016737636497151757, 0.9212440654954037
1285, 0.05832184345909723, 0.7716944661126884
1286, 0.036942210410702274, 0.8965824400822339
1287, 0.1015836488945122, 0.7368273039086777
1288, 0.37146197997685, 0.42336247707156005
1289, 0.027695777619946956, 0.7564684004368265
1290, 0.0670187131171025, 0.42455326317751957
1291, 0.053838290115835886, 0.8973626197293696
1292, 0.027620637952616055, 0.6192707835818574
1293, 0.017450470578593894, 0.9184222760870238
1294, 0.07067512626080429, 0.975768358319957
1295, 0.07347231935374489, 0.9935714752632933
1296, 0.08245361726234385, 0.975713454627338
1297, 0.07874899743386682, 0.9100705598989061
1298, 0.09620958249570016, 0.5968548404591069
1299, 0.14614362857687366, 0.360472061055566
1300, 0.07117876983533758, 0.981566820444149
1301, 0.06978073251216864, 0.9732263199050987
1302, 0.06703945229735776, 0.996200434370669
1303, 0.07357899317392731, 0.9849151802620393
1304, 0.07331698462775393, 0.818967600703943
1305, 0.09599756149358475, 0.7895290626731553
1306, 0.0652316989296948, 0.9258104602616705
1307, 0.024277219401815858, 0.9629997043959382
1308, 0.047741343658983394, 0.7357012398828026
1309, 0.0179762136330633, 0.8925987396004077
1310, 0.1694056778129329, 0.014620430006027559
1311, 0.02390920453631587, 0.9733744870604117
1312, 0.02638658106130933, 0.9782066059488065
1313, 0.024832486397308035, 0.9857543051472912
1314, 1.4321042040717744, -0.18541537494591182
1315, 0.6822545708196613, -0.02609233866133009
1316, 0.4316645616868252, 0.08255318100846286
1317, 0.038498990623712585, 0.9798795476047477
1318, 0.036062435050558804, 0.8955689730248406
1319, 0.10170844665240573, 0.9956368660524342
1320, 0.03731583692388207, 0.9905232339513594
1321, 0.17903798854921862, 0.30267856633848755
1322, 0.05699111639441339, 0.9197920544177948
1323, 0.023926092916781997, 0.9752766664399825
1324, 0.06335256330797971, 0.9950147464049414
1325, 0.027205786541406245, 0.9693271385314082
1326, 0.10836954724219212, 0.9939844115625951
1327, 0.03961733295752485, 0.2750778902536495
1328, 0.027449394918686178, 0.655721769789973
1329, 0.02921838208751407, 0.8571756720662465
1330, 0.014061697355992034, 0.9510375944674675
1331, 0.012173615449289398, 0.9474736125838967
1332, 0.398731444606781, 0.24093189649760685
1333, 0.013750171710095592, 0.8115171615099441
1334, 0.10059900162783134, 0.9791311321202573
1335, 0.046067626626926594, 0.9818074670135235
1336, 0.018131994188129538, 0.8509574453029616
1337, 0.019759238076678533, 0.7740641659292051
1338, 0.024287218189275848, 0.8817651855130282
1339, 0.02153566046555194, 0.9409866597013412
1340, 0.015288752562104675, 0.9022373687970122
1341, 0.04209338385104544, 0.6696959602488421
1342, 0.021681852921973357, 0.7662063649252753
1343, 0.21009227592634824, 0.6878403978909003
1344, 0.019208646686912603, 0.8830825683273522
1345, 0.014980397304300957, 0.8817667129372087
1346, 0.024499932856921473, 0.8265484164421872
1347, 0.030268201579091224, 0.7293122283261204
1348, 0.051688937816883634, 0.6970766743247854
1349, 0.04478062142821819, 0.6853767097565386
1350, 0.032644082438397885, 0.7597039495987523
1351, 0.029392998383772375, 0.6132807305045874
1352, 0.021040645070814264, 0.8903090239734446
1353, 0.01594231562363861, 0.7320491708860135
1354, 0.24458927642714837, 0.4919419235634427
1355, 0.0230091728944622, 0.41402523199769914
1356, 0.05193216832948824, 0.37035569228434595
1357, 0.029443973536897015, 0.7154754366345801
1358, 0.014859826553613833, 0.9246736345646756
1359, 0.04789721444330828, 0.9038131871715045
1360, 0.042421669667069006, 0.2933402836957746
1361, 0.008044335603980763, 0.9256866997379923
1362, 0.015571080472975164, 0.8403122013482494
1363, 0.024095403439049264, 0.3478888525905463
1364, 0.03415840945389175, 0.01103777488709155
1365, 0.24489660839421418, 0.4199310648252035
1366, 0.019080161756035767, 0.6342620433229176
1367, 0.09728083651635581, 0.18334728606294945
1368, 0.04090158877531924, 0.19372510072649302
1369, 0.1900048740231288, -0.3133887621742668
1370, 0.009113425569633819, 0.9288984067012344
1371, 0.013384879494868811, 0.9137851748021216
1372, 0.02014394188596669, 0.9858672577720575
1373, 0.016425636371148605, 0.8625885657886231
1374, 0.015623241402550456, 0.9112450038346647
1375, 0.011554922731017808, 0.9079317200877329
1376, 0.055711558800912275, 0.7022069910040056
1377, 0.13718347454993893, 0.16019774952106755
1378, 0.08368208021741139, 0.3645263006535929
1379, 0.04839815425037421, 0.5893245391465542
1380, 0.04608250167121058, 0.9331401681404816
1381, 0.044669765519538045, 0.9221382717387479
1382, 0.05059778236171265, 0.9351683626838166
1383, 0.04411693972062877, 0.9581726519772413
1384, 0.0639511572894475, 0.8706112523088139
1385, 0.13580544390871385, 0.03689352611269188
1386, 0.05000529366992107, 0.9410660510964926
1387, 0.05326428450911514, 0.7002344927891506
1388, 0.04407357625181225, 0.9699767868263403
1389, 0.0423088042021436, 0.9696552534160651
1390, 0.09468795985036153, 0.9948835964053749
1391, 0.06544966805366188, 0.9547225532135051
1392, 0.052229956638565125, 0.9407831528122752
1393, 0.05594931978478246, 0.9385866336273896
1394, 0.046155186854301346, 0.9310275187273307
1395, 0.04343675126687054, 0.8873928418795567
1396, 0.0538799686651038, 0.9483871016399079
1397, 0.03588882161304037, 0.8886536820941715
1398, 0.020170489975862536, 0.9271001688864772
1399, 0.04254391390822964, 0.7295819356597547
1400, 0.04382794407921596, 0.9660567359923877
1401, 0.049996719485395524, 0.9595787596237857
1402, 0.05162753054378887, 0.9321648554721729
1403, 0.07571055615688023, 0.9847486229332199
1404, 0.05044015222087232, 0.9594212960925785
1405, 0.05334189238514928, 0.8651011500628019
1406, 0.049655449249479594, 0.96746608994062
1407, 0.05194610913333701, 0.5654278265647285
1408, 0.05810762246745407, 0.7634265865636982
1409, 0.06251581454375131, 0.7620378869581714
1410, 0.04506274903493144, 0.7395861849997336
1411, 0.052988154394907255, 0.9481654584322006
1412, 0.04963029683216846, 0.9505155065918537
1413, 0.04902716740833264, 0.9695736523435934
1414, 0.04355426884898957, 0.9511610604706642
1415, 0.045126592276534976, 0.9402196836799631
1416, 0.04561178682511971, 0.9703202782704969
1417, 0.051247733987498684, 0.9590618751887162
1418, 0.048089157543406, 0.9787286174564109
1419, 0.048060156390286476, 0.9098856650611207
1420, 0.042253735935194874, 0.9058211863621439
1421, 0.0591063958958466, 0.7178599797721499
1422, 0.04875548629601714, 0.9662389787666231
1423, 0.05291037378083077, 0.9867851402056329
1424, 0.04423025836686053, 0.9429370109725899
1425, 0.04342723136393949, 0.9560726427819597
1426, 0.05362838989374297, 0.9875053909298975
1427, 0.0449147776743009, 0.9078070195078985
1428, 0.04735311556279291, 0.8947300193053904
1429, 0.05105043305453289, 0.9125315699496245
1430, 0.043201710623236925, 0.9085162936365243
1431, 0.05757870600939967, 0.9071098668878738
1432, 0.04993456115808956, 0.6940959432446359
1433, 0.04614085981878368, 0.9780282960843938
1434, 0.04896938791236435, 0.9315775471189455
1435, 0.04747415849241561, 0.9348706891949261
1436, 0.046653378746468126, 0.9244333722343105
1437, 0.04516549429033302, 0.9306094271183607
1438, 0.04494759159445414, 0.9404898087982639
1439, 0.04428392246366486, 0.9338212023847537
1440, 0.04470259401926423, 0.9578889400901496
1441, 0.05199878717135487, 0.9840759954740863
1442, 0.048645875234414125, 0.9791107067128872
1443, 0.030661130684894622, 0.8350011615073747
1444, 0.050817074305933047, 0.9573434088411752
1445, 0.04276862864576909, 0.9425118735447127
1446, 0.04350999926080288, 0.927821136370967
1447, 0.0443908287824729, 0.850522983831626
1448, 0.04545788682307672, 0.9750016760326197
1449, 0.04860414921073983, 0.9400096791410806
1450, 0.054933596844256305, 0.9657622765970361
1451, 0.0534440982620486, 0.9597873194547945
1452, 0.054253714631626995, 0.9829181598442391
1453, 0.16511864355112524, 0.16845749360408246
1454, 0.04356137843398216, 0.8379585722758657
1455, 0.244392151509095, 0.2022360631035791
1456, 0.11820566857062567, 0.2621752450566097
1457, 0.18665832139026317, 0.059740266067215345
1458, 0.2680166764541427, 0.5324689018244726
1459, 0.3092146964671796, -0.02945938388750369
1460, 0.19313163654023624, 0.19391576082977957
1461, 0.28461181322475226, 0.14668528895542393
1462, 0.25835447467044736, 0.5468496382610144
1463, 0.18285770487359215, 0.09448596687996569
1464, 0.13383593068247396, 0.3732821366877751
1465, 0.03461840454034536, 0.7431808006472804
1466, 0.12972738868055791, 0.3080581408887959
1467, 0.21782093376227735, 0.3332965710124607
1468, 0.21059432259108848, 0.618716488011925
1469, 0.28461946651813924, 0.099369247070873
1470, 0.26908858228118065, -0.12489623443118039
1471, 0.8646873285707901, -0.12484172807015695
1472, 0.6176897987203369, 0.03642086393312974
1473, 0.03527883282678732, 0.6698005449893744
1474, 0.03262271634773508, 0.7727974504398606
1475, 0.02593069740918152, 0.754185176546329
1476, 0.03885017657572064, 0.4720180154179422
1477, 0.018195846831621364, 0.8497113251082786
1478, 0.10339635340448337, 0.22353078543951016
1479, 0.03569296485820893, 0.8197407729075135
1480, 0.05940786770907724, 0.4537687406975371
1481, 0.021715459678790183, 0.8359542597841162
1482, 0.04635658014602633, 0.4003379986843979
1483, 0.021467409408010944, 0.8827567707601025
1484, 0.023067587467833172, 0.8832009418569892
1485, 0.019204656034993745, 0.9346462812282634
1486, 0.022169483447612992, 0.7473086613602298
1487, 0.04509761220961902, 0.6894243608233891
1488, 0.020155646633835955, 0.9484461215064197
1489, 0.017996849319719493, 0.8945903960302728
1490, 0.024656724869992104, 0.8181524031934263
1491, 0.026200317585012962, 0.7514700733001245
1492, 0.060870722271292074, 0.4812578777555913
1493, 0.023561183827869647, 0.7047013582118167
1494, 0.03132348990997648, 0.36335972558221274
1495, 0.02341116618824653, 0.5329911113325527
1496, 0.015712955930811887, 0.8628220599423493
1497, 0.012200841102336718, 0.9649356057157814
1498, 0.04741696281312447, 0.5872532331253064
1499, 0.012164311626420489, 0.8502256784853051
1500, 0.06786817348773824, 0.9010209022628162
1501, 0.09700825220854702, 0.27554428338687587
1502, 0.018540481899312733, 0.7871330261802757
1503, 0.05373302534294529, 0.890510673994739
1504, 0.026422226145824037, 0.9414401427554544
1505, 0.012987862357083874, 0.8648692018113244
1506, 0.07357273391791694, 0.9533949024336456
1507, 0.0570369111804212, 0.12211843816100909
1508, 0.026841330897020073, 0.4689955410990199
1509, 0.04419010634570905, 0.6911063365428338
1510, 0.042354364601284666, 0.6358525489703883
1511, 0.08144394730462444, 0.8824873672635372
1512, 0.01871589724390626, 0.9641795248255727
1513, 0.014572034920874354, 0.8464423797409218
1514, 0.05435975336396408, 0.4596643536677606
1515, 0.015969765660691984, 0.788070548213702
1516, 0.010341163400686823, 0.9137865773971243
1517, 0.08551701166131032, 0.107023803985523
1518, 0.030183685368303764, 0.5164891251116649
1519, 0.018676156264912366, 0.6537451118809514
1520, 0.013323699815689856, 0.9254759358809224
1521, 0.035827793172183986, 0.8182281424816608
1522, 0.017506369552939396, 0.8066676591890014
1523, 0.008349065437954373, 0.8721386431044877
1524, 0.0803001720922102, 0.83781922270644
1525, 0.029017121663642852, 0.9125070944957927
1526, 0.011143397560258608, 0.903441702682921
1527, 0.013763319077675473, 0.8178689466591436
1528, 0.008755424550666193, 0.8608659868585296
1529, 0.015186401001771923, 0.935288348289288
1530, 0.028407911864994362, 0.9124421591086501
1531, 0.0511885372431062, 0.6686027120590408
1532, 0.08855814748992469, 0.5062424946100479
1533, 0.0344672701469161, 0.6834831784300344
1534, 0.07282966068079919, 0.8229429677894042
1535, 0.02102482054107242, 0.904704773315778
1536, 0.019579447713631813, 0.6526671915646376
1537, 0.01091504509650983, 0.8965851214879003
1538, 0.009634333493871675, 0.9325815509440274
1539, 0.012045081207976115, 0.9230735741526074
1540, 0.017940875052711157, 0.6400291541577765
1541, 0.018599940181663468, 0.6276948139863787
1542, 0.008133016185479647, 0.8894647942412571
1543, 0.04001213906197879, 0.36825713651393494
1544, 0.013252627075720474, 0.9588362845607918
1545, 0.12081664944674882, 0.9479053858356123
1546, 0.03768625674512591, 0.7676093572799318
1547, 0.04413921242344668, 0.4695467440446178
1548, 0.02733260219296041, 0.9333485709300968
1549, 0.16774160479766015, 0.9627707921229527
1550, 0.05014960016030394, 0.43886965102978254
1551, 0.030138907621392798, 0.9300362496319623
1552, 0.022835200711611936, 0.980033546075182
1553, 0.018163349997754628, 0.8720204391427027
1554, 0.030159436228473335, 0.32657836069743335
1555, 0.027028094007173563, 0.8843987222398642
1556, 0.05638115821361826, 0.8874588461833963
1557, 0.01809826953350564, 0.8903163389394313
1558, 0.027106658726766885, 0.927125242323769
1559, 0.018710611390785132, 0.9356238307520759
1560, 0.03423242973129962, 0.9782012679095297
1561, 0.11597772474922513, 0.9535654164157618
1562, 0.14806373518884922, 0.9648847339981622
1563, 0.10736730463279237, 0.9840910751151992
1564, 0.04327801229609145, 0.9586302270797706
1565, 0.07018251473215843, 0.21545254993973076
1566, 0.12873750949082166, 0.9575817354802716
1567, 0.16354337166327634, 0.9857762738536202
1568, 0.06247704618067876, 0.8074207024916044
1569, 0.024616426937588566, 0.9223995236347916
1570, 0.182176579492195, 0.9324101203810911
1571, 0.03073413394250985, 0.7173901567138332
1572, 0.05068648097681296, 0.4851753388435255
1573, 0.028513250555370476, 0.9298526109445588
1574, 0.013181472854139478, 0.8841545508688571
1575, 0.020120789541420218, 0.9588221239982997
1576, 0.12375182664522272, 0.6792036760467572
1577, 0.022593146985468878, 0.859041275138287
1578, 0.013956299280293485, 0.940300894614563
1579, 0.023488054598379205, 0.9580272450235945
1580, 0.04063500056725203, 0.8033002575614803
1581, 0.06349638446093722, 0.3761404315949073
1582, 0.05626497152164989, 0.5047325030877339
1583, 0.17343763185491062, 0.21576150435065033
1584, 0.02392919997205696, 0.8494021791140833
1585, 0.11359109650776325, 0.9717596057896822
1586, 0.017151798179749655, 0.9411530568307747
1587, 0.07087425169447237, 0.6640549209843674
1588, 0.015062022280582314, 0.9624867115044506
1589, 0.01681895080810697, 0.9644910359465356
1590, 0.03436589313915826, 0.9341005795450918
1591, 0.020492433549251492, 0.7971215517378912
1592, 0.01717779310845864, 0.971357198523974
1593, 0.037907847683797596, 0.6442332818257952
1594, 0.030222276967714148, 0.9266043522817846
1595, 0.040513782200947375, 0.7280612136075806
1596, 0.026627307639341492, 0.9951780968946833
1597, 0.022994620251487442, 0.8733702571410068
1598, 0.08310106124284919, 0.452416821684286
1599, 0.01482038596386757, 0.8873244320981687
1600, 0.07108922214465158, 0.5158454959438192
1601, 0.022189817516668355, 0.7875623392230733
1602, 0.0224105603076099, 0.7995236133441229
1603, 0.03547248355191419, 0.9750428622937941
1604, 0.019804513852397024, 0.8979643250314939
1605, 0.025430823886965218, 0.7213876650261508
1606, 0.01338414060925401, 0.9378542412303537
1607, 0.017645185837636367, 0.851089696191327
1608, 0.01996826593000577, 0.8662571645213056
1609, 0.02765110270388101, 0.5715629148021755
1610, 0.026162043622907315, 0.6802830609370782
1611, 0.01978525560391017, 0.8352634158349004
1612, 0.024363558336015678, 0.7621591646347321
1613, 0.030048184792503676, 0.24804155997224386
1614, 0.023001226886677526, 0.7263135564710548
1615, 0.018909747236916866, 0.7095726644047136
1616, 0.025925647984848733, 0.8284732277269109
1617, 0.11511945334466693, 0.9956586178530762
1618, 0.019495979600219343, 0.7782388455266549
1619, 0.0330238673335923, 0.5319343508727732
