Figure Index, Root Mean Square, Pearson Correlation Coefficent
0, 0.02590854781502389, 0.6501503072389638
1, 0.01863873320550571, 0.7940420027260808
2, 0.1354034883504306, 0.24163345317713736
3, 0.02867013001776673, 0.5898645696201634
4, 0.03924613679029893, 0.4503052702861062
5, 0.03339485339857056, 0.5965036903052223
6, 0.01794206269822462, 0.9379858118545806
7, 0.02066426567879056, 0.9291484763423108
8, 0.01409401871111366, 0.9090744434395512
9, 0.015534440650490701, 0.9307535236164921
10, 0.05067927293632989, 0.7797005356646208
11, 0.030566699915438447, 0.9413055848148395
12, 0.01292653000283308, 0.9591812271730193
13, 0.019966337409712407, 0.9466177615628937
14, 0.03044519386248426, 0.331189907717479
15, 0.01732437230508863, 0.8426177547105524
16, 0.014174513853732992, 0.942864036647977
17, 0.04390670198335248, 0.8892439363599821
18, 0.01860332976107474, 0.8253071842817388
19, 0.013631159914945444, 0.9409244437662425
20, 0.023830387946059947, 0.8839885450835374
21, 0.017628823592390347, 0.9181955051516616
22, 0.08109956362455097, 0.8203025340440273
23, 0.028069868236243935, 0.834971289689787
24, 0.01324679123194802, 0.9674137793566748
25, 0.01579827003157835, 0.848724448667507
26, 0.014928206920483588, 0.891240180870271
27, 0.019965056829744886, 0.9604274045424901
28, 0.01406946644712055, 0.9326728638483133
29, 0.025111452509243896, 0.9196831661503847
30, 0.020801969574327516, 0.9628782920460414
31, 0.026375028517820115, 0.8915360064617956
32, 0.023126078173743948, 0.9192191420944469
33, 0.025690051632021767, 0.923392852073421
34, 0.01883104043653579, 0.9704267969531654
35, 0.03771715543956367, 0.7939769501522183
36, 0.026651225938102936, 0.8467871355245611
37, 0.04699547859349559, 0.7334434959176637
38, 0.02535741525778123, 0.9133360093561647
39, 0.032028219260209156, 0.7926190496818779
40, 0.02769654631672455, 0.8945328669872366
41, 0.030499792130307835, 0.8819047936635553
42, 0.03471247992297657, 0.8422702721955627
43, 0.021658029338062355, 0.8901835535624569
44, 0.03999656192165283, 0.8648240834688327
45, 0.03831504091715816, 0.904411597764354
46, 0.036793087119249654, 0.7627441279543143
47, 0.052167657158255026, 0.07056155987145911
48, 0.045040416658506735, 0.6515945711121874
49, 0.043476656291801946, 0.6716484017465142
50, 0.03796960378479963, 0.8602044389206664
51, 0.04887987870202688, 0.7589627331334258
52, 0.031630265093392416, 0.8403780971372001
53, 0.02755956864878293, 0.8501207769077906
54, 0.03194588558722824, 0.8929310783111859
55, 0.03931377700369564, 0.7658732725111301
56, 0.048636915059451315, 0.7017641355891701
57, 0.03323728981803208, 0.837131268636766
58, 0.020657217234366726, 0.772543293041057
59, 0.02781221043718425, 0.941978460744476
60, 0.03604266727714089, 0.9140986485876894
61, 0.17733015223466528, 0.616447749040492
62, 0.03586712445868526, 0.907020457391017
63, 0.029763926894382373, 0.9611318321927975
64, 0.09472203573739187, 0.893855649254744
65, 0.02705661333190795, 0.9466990362114338
66, 0.0423067904297113, 0.9530724597253085
67, 0.024379379479235287, 0.9653889802651061
68, 0.03350350124248606, 0.9006691793531959
69, 0.016097181905473833, 0.8728292056321956
70, 0.0355131853660916, 0.9151621853072129
71, 0.057572105077114466, 0.8993541989448803
72, 0.06334951587548525, 0.9251042148396518
73, 0.07369824932487708, 0.6370428052967282
74, 0.11032832833188284, 0.2090318944326114
75, 0.14783887603961435, 0.24619683645186757
76, 0.032086147699069624, 0.8436775093223757
77, 0.06721108480814608, 0.3476494486951051
78, 0.04482690991195524, 0.574181012052331
79, 0.07202967375336825, 0.45568541125562767
80, 0.02213807707714531, 0.9596352796494159
81, 0.12166226673645372, 0.5958025847349173
82, 0.04447568222975666, 0.8150417645356821
83, 0.1003241249967015, 0.5762522292020685
84, 0.051889005058615906, 0.4032627510018385
85, 0.04604258230548678, 0.5952346943553628
86, 0.04552670824721074, 0.5474529659165449
87, 0.03901823931321017, 0.7765869132993717
88, 0.061039841527818724, 0.48616703547135026
89, 0.06258601175167902, 0.653153042166627
90, 0.031187277283442727, 0.6879634088691136
91, 0.019998774216753758, 0.6254825061954334
92, 0.045399448683323504, 0.8085612632676611
93, 0.10201185259427262, 0.6648697940638324
94, 0.017317195169372232, 0.8580598484122539
95, 0.10154057964679596, 0.21003173315062817
96, 0.05519166055692226, 0.4605571350925465
97, 0.06758811328411467, 0.530714560104425
98, 0.10668430291887093, 0.24880502198901105
99, 0.11546764034481231, 0.38056123909548323
100, 0.11397078250620839, 0.1608380002880078
101, 0.2214341384738021, 0.18852998740851618
102, 0.02456079238737939, 0.8031860944299773
103, 0.054285583853269224, 0.6488771175733741
104, 0.06907448301899831, 0.42179332138117703
105, 0.052698986248794176, 0.5271668026035568
106, 0.037535196919327, 0.6862334509298961
107, 0.02876383325721065, 0.7137988274529223
108, 0.020197099973529194, 0.8448426491240442
109, 0.03518326769523082, 0.6576914740849059
110, 0.01590739104028934, 0.9100817631329434
111, 0.06306651170864132, 0.9073161374266976
112, 0.04423873216849752, 0.842450353910561
113, 0.1571148808972253, 0.3132510735287515
114, 0.015988498444881653, 0.7744258388720204
115, 0.04825051879028702, 0.5650884839953068
116, 0.05279526575791658, 0.6977924865107193
117, 0.05254498829020538, 0.5555302606943071
118, 0.02957110887429835, 0.5833638970348218
119, 0.05486398949297991, 0.41026363037046476
120, 0.04917100961475888, 0.4840394632616065
121, 0.052726351293272446, 0.6013270868796602
122, 0.09815702005176453, 0.4422424168634631
123, 0.10947159007386315, 0.3200126206313191
124, 0.05909153590175311, 0.579167099142343
125, 0.029578478242371902, 0.7107313466503377
126, 0.05705851132834924, 0.387005749925231
127, 0.0386189196604688, 0.7656115577407536
128, 0.07091223420841736, 0.402212634574358
129, 0.02530232802468874, 0.8056284573190788
130, 0.07263274807081367, 0.3009515510480661
131, 0.11335227173885434, 0.2695273988320316
132, 0.026572658612658437, 0.8142834827529158
133, 0.024234223245413695, 0.8730394710162537
134, 0.029999954525001486, 0.8170556938474756
135, 0.021964542942488233, 0.8859607816966276
136, 0.021369291738425954, 0.5719803661226998
137, 0.027144743544821805, 0.971773473259637
138, 0.011327198609698125, 0.9358988053919196
139, 0.06854449976824188, 0.6909408504668857
140, 0.09755090858328294, 0.13418069679985664
141, 0.3860531292156222, 0.003908688056157105
142, 0.1602649762551754, 0.9280043575420741
143, 0.16139004493679493, 0.9814300499094832
144, 0.08150195068107924, 0.9246289081739401
145, 0.017699493819021674, 0.822631991018786
146, 0.024950617821619305, 0.7290894934053789
147, 0.014751290978976726, 0.6598517630717389
148, 0.07339405904789459, 0.39748420411021035
149, 0.019341364633101033, 0.7718956462725657
150, 0.013796165476780647, 0.8907336291117076
151, 0.01568354730543141, 0.8546209285253374
152, 0.01590103825673043, 0.8849483365212683
153, 0.008594413153086863, 0.9566183810321032
154, 0.021645350743294586, 0.7280259537195222
155, 0.022059864889923113, 0.7472789576117568
156, 0.014418950638300086, 0.8828492641801133
157, 0.027821275263590933, 0.7454928174576652
158, 0.022624375773718723, 0.6367556943063724
159, 0.017898509328308845, 0.8249807565101284
160, 0.010391659947076883, 0.9430761741427002
161, 0.01644641998723358, 0.8366753149562534
162, 0.016051468037029712, 0.8486180960279543
163, 0.025297756739349794, 0.6662869742010713
164, 0.05121888663435371, 0.7355744119558102
165, 0.019495534860999, 0.7725029096769527
166, 0.014945377251574155, 0.9104724113641991
167, 0.01201628070007718, 0.9098882621568646
168, 0.17556336936889566, 0.09799448496600724
169, 0.019470061857817845, 0.6227118743434769
170, 0.08623376069322232, 0.25699239819350017
171, 0.0745627499330807, 0.6037615432179382
172, 0.040061599256922285, 0.43565201907049117
173, 0.06358905513104211, 0.3103766949203315
174, 0.08065755436412492, 0.07576068555310131
175, 0.034482842690872685, 0.508372149801389
176, 0.1829371701888613, 0.20383190941834087
177, 0.04513861543780331, 0.6019358593747897
178, 0.07733159641095315, 0.8454152225540108
179, 0.08107354996314806, 0.9519485419705602
180, 0.059740977083210994, 0.2070837153538046
181, 0.05669846071796408, 0.8985029210765829
182, 0.042579540027409095, 0.8392420740910584
183, 0.02564601223995885, 0.9153759327194129
184, 0.03565414817606078, 0.7818206840530144
185, 0.033121975493985566, 0.8928054286622634
186, 0.029076753459518417, 0.8984899753184425
187, 0.037484286332413914, 0.7460144161302998
188, 0.027030256200985613, 0.9198152141301514
189, 0.030162328280789713, 0.8879325896933508
190, 0.02701856761773559, 0.7689258248062423
191, 0.03401514813736925, 0.48499176265398425
192, 0.03130265657948958, 0.8745485936673734
193, 0.02462715127722398, 0.8934659434539207
194, 0.027001287542824933, 0.9080482287630776
195, 0.03485967247667604, 0.8143192195938143
196, 0.03208488559007263, 0.8673868265664394
197, 0.175579841494805, 0.342852979520047
198, 0.021328699317018775, 0.809476577796776
199, 0.022397517692797454, 0.7346376055147531
200, 0.01695647245027841, 0.8068214723039437
201, 0.02358640392443502, 0.713824231822813
202, 0.04683160101897048, 0.6812575836951356
203, 0.029205581283770658, 0.6788111345664155
204, 0.02410361333651107, 0.7343977852823417
205, 0.08470128764781736, 0.48525593841278614
206, 0.04507952916849775, 0.45354917176317755
207, 0.02665028635000285, 0.5838308551144002
208, 0.059756402625369, 0.30578661252254197
209, 0.0363188597351637, 0.5238555462707633
210, 0.027365841832677647, 0.554973069065845
211, 0.11209086695129196, 0.9522717667471835
212, 0.10593209087351647, 0.8141173649682827
213, 0.05826106495597676, 0.6208921717573224
214, 0.07959984237914505, 0.9424560309294074
215, 0.09767795118054283, 0.5568145443303941
216, 0.08849960720923596, 0.6331199547099772
217, 0.04600412642395263, 0.8071441371853798
218, 0.06661742755683527, 0.9096889848333412
219, 0.06275174327435992, 0.1318036200754123
220, 0.0749585968543996, -0.023388527450288167
221, 0.15261512160633525, 0.5751263675854852
222, 0.05021323066267642, 0.6858207871680028
223, 0.07286770920118076, 0.37108496554588366
224, 0.03800484402556484, 0.5181741275820304
225, 0.01480283786307869, 0.8747062108801644
226, 0.04559471385128455, 0.6969410743792862
227, 0.015118131729777556, 0.8964767146797221
228, 0.06305633158210361, 0.6677881701853576
229, 0.024147401623728457, 0.8204811383969589
230, 0.0239726088671082, 0.8364511849002474
231, 0.041657272742915655, 0.6273383834802551
232, 0.04550985250850783, 0.9154590613400568
233, 0.052251835807514045, 0.9113042510937963
234, 0.03289754396867227, 0.6037915424237112
235, 0.013449944725659775, 0.9744851169164133
236, 0.019903876708324424, 0.8369037576392284
237, 0.01964160331097103, 0.9523756785915763
238, 0.0193091111371843, 0.9410094111318477
239, 0.01732657558164621, 0.8951899844660538
240, 0.013428175191724635, 0.8855689385933438
241, 0.01639679973749321, 0.7391203348427535
242, 0.021193286969709305, 0.6887926115370986
243, 0.017509736741846853, 0.873529436300965
244, 0.021449486795116143, 0.806150883641422
245, 0.03886717496941059, 0.5385010129961237
246, 0.014422269251886336, 0.9261366186782554
247, 0.02253043434538354, 0.9405940788476641
248, 0.027304474208996808, 0.7937229998541767
249, 0.015413390100219066, 0.9490773271423817
250, 0.01560438691250844, 0.9071777997929189
251, 0.0561732347504128, 0.5133620496617408
252, 0.01612721627704535, 0.9185268708476377
253, 0.018515667046283366, 0.8687693895633501
254, 0.025807344656654633, 0.6330179171603092
255, 0.0433097104455645, 0.41939952433060396
256, 0.01457753950759632, 0.9660125085907691
257, 0.01909236314162868, 0.9599167247512047
258, 0.029254828500962907, 0.7901603785046883
259, 0.03826945246729847, 0.9142536193997772
260, 0.012890211672764468, 0.9509400005622698
261, 0.010300124527074342, 0.9601762690809045
262, 0.061465246442689005, 0.6520556786334499
263, 0.035628309746186575, 0.6493201292909287
264, 0.020610961293532144, 0.8712814799872184
265, 0.08072518040398018, 0.7028320146506456
266, 0.04446310476760706, 0.8487061083381664
267, 0.2231937996054859, 0.014972695237739355
268, 0.042521351353572205, 0.6578097470323595
269, 0.019542522194812628, 0.868352453017255
270, 0.07445035213047908, 0.7428874546572786
271, 0.04327187164086589, 0.9037504356550292
272, 0.07852099910543232, 0.2884215947483517
273, 0.02302641825496965, 0.8438512440653152
274, 0.024401093708819675, 0.9102094737649977
275, 0.011292621268181096, 0.9302283728654388
276, 0.012338234250794713, 0.9332128383642809
277, 0.03734680778630643, 0.7910254499848773
278, 0.019415059149465067, 0.9100381180091447
279, 0.018163749120209804, 0.9538201897457708
280, 0.018387025161366845, 0.8873476381895707
281, 0.018348775849911698, 0.9549548217954416
282, 0.08069007301369954, 0.9616961358279414
283, 0.05915895408731084, 0.9305294191147482
284, 0.08460658725981214, 0.8368236450350401
285, 0.05907148297540999, 0.9413754742344838
286, 0.052959166804356105, 0.9723733868990136
287, 0.06808909879126242, 0.9589774123021588
288, 0.05875365040782272, 0.9616655507998246
289, 0.09999334053802457, 0.7906293030383047
290, 0.22082806989845868, 0.7630534423783686
291, 0.03210616144039914, 0.698779922781763
292, 0.0515146532997564, 0.9449319876758475
293, 0.06558503433002962, 0.9468609601724577
294, 0.0615399777318516, 0.9694888173648571
295, 0.15994948135140816, 0.820606634634205
296, 0.15713572178733792, 0.9681066734080983
297, 0.048291499989601465, 0.9665740964384207
298, 0.08255685182068115, 0.8692229917047867
299, 0.06640019154728481, 0.9231832715731001
300, 0.15223220901309054, 0.9102629007738808
301, 0.05452526741270464, 0.96720557209882
302, 0.02548576792576842, 0.7318337289748335
303, 0.06508470839181593, 0.9408665305878021
304, 0.05888096033351333, 0.9676500838801384
305, 0.05489227118716823, 0.9546246674279173
306, 0.05838191754790353, 0.9754969258819243
307, 0.06443330338909221, 0.9382689051828705
308, 0.051067779867941324, 0.9748608746198757
309, 0.16133782201549846, 0.8780561532411455
310, 0.15772904740852828, 0.9711047633534791
311, 0.05412773651839737, 0.9527602280434635
312, 0.05530769508958772, 0.9688783885790941
313, 0.024297116125939114, 0.7327541485679646
314, 0.07686838835479567, 0.9394673375917546
315, 0.05041533336824751, 0.9695363298764825
316, 0.14543546168055727, 0.9719579573842347
317, 0.05240099566541346, 0.9756594848721127
318, 0.08865264659647178, 0.9023789101877349
319, 0.10116135240496064, 0.9369082303455443
320, 0.0946524997824658, 0.9591469709004922
321, 0.05212209555326184, 0.9725785498081346
322, 0.0644369164972329, 0.9370167972354226
323, 0.06794870786157486, 0.8722798294110901
324, 0.020972093970770687, 0.8605743281815752
325, 0.12163985233262543, 0.9145553223124764
326, 0.05729504065807594, 0.9674719817583243
327, 0.06363257788070137, 0.9414502341063893
328, 0.05343334727379009, 0.9669611775095905
329, 0.061737845087095275, 0.955134817791468
330, 0.07837382992969395, 0.8597620438176918
331, 0.050315689816625035, 0.972470318332858
332, 0.06355090492188821, 0.9389011486525393
333, 0.06558850243151546, 0.9615386110891702
334, 0.15456164252411017, 0.7700582466605335
335, 0.031808331867666864, 0.7297013638605849
336, 0.0164663700696514, 0.9272555307593755
337, 0.10425850936168156, 0.8425825074398092
338, 0.04813767591780482, 0.9704306995405481
339, 0.05902822951733378, 0.9589715043336847
340, 0.0547336648637031, 0.9723792712562249
341, 0.06531764136235507, 0.9240747146006904
342, 0.06428175486424619, 0.9779984076362196
343, 0.06330855910747822, 0.9813177333968521
344, 0.06738550953390542, 0.9701566446256025
345, 0.06641036303928796, 0.9745021232068956
346, 0.0638940362504361, 0.9612222562203587
347, 0.013861037878952511, 0.9462049244304893
348, 0.0738440996243747, 0.933854497331559
349, 0.06386343413547782, 0.9808519757782403
350, 0.05491966888637587, 0.9735636095629161
351, 0.2325268678331659, 0.8250127171591987
352, 0.07087330755412848, 0.9445818634607163
353, 0.06732775442630777, 0.9401136079339297
354, 0.05756470864302855, 0.966447507385231
355, 0.0629062405448484, 0.9591869781721958
356, 0.05918206248778403, 0.9507124865366727
357, 0.0746638853932343, 0.9347880588693891
358, 0.06132608626713306, 0.9312964285235459
359, 0.14220808377393046, 0.7391150518395598
360, 0.11434363533241802, 0.6759395950173966
361, 0.08031067941767935, 0.9357012837474752
362, 0.058341930472061, 0.9463805823980341
363, 0.06955964914374672, 0.9537073692124043
364, 0.07660389723574676, 0.9630050171999629
365, 0.06440636124988076, 0.955906152500102
366, 0.06090097347028115, 0.96254355658588
367, 0.05542326820296378, 0.9631658139295737
368, 0.12332793740559372, 0.8420905979984001
369, 0.047277548611641865, 0.8385977722025357
370, 0.06547167042045711, 0.951224544240264
371, 0.1242348888834358, 0.576632115111682
372, 0.053563655601222025, 0.9644675965445264
373, 0.054176812583512236, 0.9677507931677434
374, 0.05847317998752827, 0.9542381896150585
375, 0.06105653302046492, 0.9256257045682107
376, 0.07728857955532442, 0.8021288671641715
377, 0.08705471155469044, 0.8794526436945262
378, 0.02570038809916473, 0.4030321101017447
379, 0.03686713298132384, 0.11473055447360314
380, 0.06223030207240679, 0.8095096410634507
381, 0.08034712769282254, 0.43554319025110433
382, 0.09776017076805692, 0.3412971480049481
383, 0.024175602349994385, 0.5540169904327928
384, 0.08527033444597705, 0.1416198105870915
385, 0.06803419008091499, -0.01451400330023845
386, 0.08928248740323556, -0.08558903649342683
387, 0.12262698067857866, 0.5755626335305573
388, 0.1637004456708669, 0.2747038427323388
389, 0.08047259138648216, 0.21574325455664775
390, 0.3343008852544419, 0.5713899931564079
391, 0.0424847971556016, 0.8867992834605629
392, 0.16343728001630037, 0.24473769106246063
393, 0.059297738087235256, 0.31557223907928356
394, 0.059764345864522304, 0.3808519378068976
395, 0.031008852205403125, 0.28900619290400154
396, 0.0211326045191882, 0.365497440238744
397, 0.01607927761723022, 0.642545165523109
398, 0.11012313000218954, 0.33447898730245607
399, 0.4150446422729723, 0.5327783745528757
400, 0.0451801632156894, 0.4427974779387993
401, 0.02523158665636213, 0.6831262215189955
402, 0.046013073375069984, 0.8532414017518938
403, 0.05148525848838444, 0.3691239891675688
404, 0.018520681456371067, 0.39107887623499826
405, 0.1809224892943558, 0.4141671151603052
406, 0.13119666193405385, 0.5620885546938283
407, 0.16132363351750068, 0.45012019831057054
408, 0.02528062702157358, 0.7402652852174084
409, 0.027293043378755627, 0.554503753272356
410, 0.025647537698460048, 0.5819097690619326
411, 0.020241928270148025, 0.6099656198338493
412, 0.016454525007798863, 0.8634018617525048
413, 0.06091673234484413, 0.8277542377063234
414, 0.02097153346568061, 0.841389575310034
415, 0.01392034516527326, 0.8905881924034509
416, 0.015091158831339177, 0.8891989048351856
417, 0.018545737551281728, 0.9080811695847082
418, 0.018423485067779844, 0.7681416930431821
419, 0.05095626857191077, 0.8765430435286571
420, 0.02094915048115985, 0.765910648710173
421, 0.019314740171181066, 0.8279365173886537
422, 0.017383976479783958, 0.8746236082974961
423, 0.023195756055607062, 0.7240649173988778
424, 0.04264324714637723, 0.8355690384780995
425, 0.024628897027370714, 0.6629896119702768
426, 0.01822530812168637, 0.873116033221844
427, 0.017237926558437432, 0.8087392309029818
428, 0.01527560279374982, 0.7701341027090953
429, 0.02924496959058317, 0.24705425824130833
430, 0.025426188751790372, 0.4569819693897741
431, 0.029925241116070624, 0.6521876392935422
432, 0.015262558662052037, 0.8547728871924698
433, 0.026628752069170137, 0.6914752812852345
434, 0.016436612028217522, 0.8364907396934884
435, 0.05570543999895059, 0.8321548216896737
436, 0.019089025646444695, 0.8405570592425183
437, 0.019350488382298907, 0.8725710428869544
438, 0.02039960271115153, 0.9070524045876791
439, 0.025977160228739863, 0.7564304663879562
440, 0.015211690510272971, 0.9460644225805696
441, 0.03560646605789054, 0.7457890657601045
442, 0.0355856726196198, 0.35207443966828467
443, 0.03981168042750781, 0.6260279344959385
444, 0.022992853986223773, 0.5456303083757367
445, 0.013772204828766654, 0.8898642093848456
446, 0.07762851906690754, 0.6224851712052502
447, 0.059793213214107674, 0.8411785417783497
448, 0.022537233799535004, 0.8057794742285671
449, 0.028848490520854572, 0.3182472046132113
450, 0.02138853627942075, 0.8094366939049621
451, 0.029308349801644318, 0.7949666932154861
452, 0.016855044479361116, 0.9021716635659074
453, 0.02390099408711556, 0.7073377176051883
454, 0.03436204628346378, 0.412380180493764
455, 0.01786496347833441, 0.8832181412072977
456, 0.023669475035395467, 0.7266991475606426
457, 0.029775911117085507, 0.8063954210076022
458, 0.040077055334386553, 0.903571081953326
459, 0.021226405608337266, 0.7836334288277811
460, 0.022643532911357393, 0.8099106458419265
461, 0.0246679569590469, 0.5385635432313537
462, 0.018525504501584966, 0.8572361423935556
463, 0.022212321435215267, 0.8684699511946836
464, 0.026488704693071043, 0.6340962968423376
465, 0.022048210867861587, 0.7913287910426118
466, 0.022181163808465052, 0.8404549134570116
467, 0.03049520691240304, 0.3497637039707443
468, 0.02306523209709831, 0.671506409988025
469, 0.03627283248842532, 0.8803596469255327
470, 0.03734304734330942, 0.5793776241997711
471, 0.017339188930381253, 0.6947703717605975
472, 0.01910304061873567, 0.9121813000978403
473, 0.03161998989067971, 0.33606324985221736
474, 0.020425853302591102, 0.7736945195000935
475, 0.018344142672566968, 0.9107358952844311
476, 0.027595101252459727, 0.6381924523611648
477, 0.016886312919095262, 0.8381917624225559
478, 0.014681359152220503, 0.8685544753222212
479, 0.016223852698660307, 0.9417675001233449
480, 0.08148151003131161, 0.702841903177449
481, 0.03022608264200441, 0.43998949886495475
482, 0.01904671406375962, 0.7740169308352904
483, 0.028258669568273543, 0.6808848210998057
484, 0.01176464713843323, 0.8307004583115831
485, 0.037381258616564356, 0.5597301196550173
486, 0.017442695014620636, 0.7650572875331576
487, 0.03329650105395964, 0.6269380694496247
488, 0.013897653481963378, 0.9099874114196589
489, 0.022519297737197227, 0.8028411791783798
490, 0.024153226434446968, 0.7765245956534019
491, 0.021081069206597757, 0.8449968636504731
492, 0.0161109557640632, 0.9043788818576179
493, 0.030145615338464563, 0.5791841472086094
494, 0.02334921763967326, 0.6258338810021419
495, 0.017781525011510098, 0.9171006620279382
496, 0.024456698244690517, 0.8253148895139739
497, 0.031107835157952447, 0.42211981615650146
498, 0.026495340180348048, 0.7667266616588003
499, 0.10143633538274266, -0.04208153510135003
500, 0.08842219534234393, 0.4353009839999147
501, 0.031333242838567456, 0.7007130715334707
502, 0.04310592454012216, 0.5825115634545328
503, 0.03172408478730972, 0.5764504928436831
504, 0.017630266644988745, 0.8663129647959528
505, 0.021636865410040305, 0.8207028010792857
506, 0.0378660231515719, 0.6619078952613657
507, 0.018044017265898642, 0.8375057956427632
508, 0.11418937647544436, -0.1209934121869678
509, 0.05834382989242122, 0.2974907981756426
510, 0.03343286521660212, 0.6522271949099103
511, 0.153614594701712, 0.552863102100818
512, 0.07031680398368745, 0.7285670910829636
513, 0.020393508122677293, 0.8236738089958819
514, 0.08852714474776713, 0.9297610073253872
515, 0.048314132955662024, 0.7953349802985674
516, 0.07235700494763185, 0.5171554229993712
517, 0.08175508404518655, 0.6964814296899223
518, 0.08075875153381122, 0.7230783479268865
519, 0.068934590539902, 0.7473495650233006
520, 0.024416392218347238, 0.9213055113373554
521, 0.029527644406797508, 0.8360057766522287
522, 0.02286055811003767, 0.9171287832407591
523, 0.094307000059973, 0.7804825101789257
524, 0.01532997308482777, 0.8793425696986661
525, 0.02103778197746891, 0.8927346152787548
526, 0.02052179059802052, 0.8552778030492082
527, 0.031050526223180143, 0.8049867861031794
528, 0.03801754080959691, 0.8110925692573442
529, 0.026609771750963705, 0.8798059518205528
530, 0.025283600810858765, 0.8512713374675753
531, 0.027636482474275574, 0.8676709850768736
532, 0.021799592019528215, 0.8825751167742049
533, 0.01964874425862315, 0.901097349684213
534, 0.021422888239737616, 0.8484433279375766
535, 0.054686951498250196, 0.7270936337381337
536, 0.022427723057544008, 0.8826527895022531
537, 0.021475714922939034, 0.8629362149161101
538, 0.10036886467401812, 0.4832934317327934
539, 0.03729456455974384, 0.8181880025844303
540, 0.026150353324246155, 0.7993128434661064
541, 0.04068452918694692, 0.8244672451999393
542, 0.15263862205950166, 0.24226416695132344
543, 0.033089008837831314, 0.8444470069761416
544, 0.0728816403285195, 0.9200342123131591
545, 0.057282124333929825, 0.8897674252717512
546, 0.042879999086062166, 0.7423337586286135
547, 0.07412827014315031, 0.9016313703021056
548, 0.058816439688496217, 0.8702295073710209
549, 0.07720091531539777, 0.9248026098958952
550, 0.07168499233925983, 0.9238357902458457
551, 0.15979881325110865, 0.6753650478413402
552, 0.07370784909466373, 0.9252820638681858
553, 0.08093002459844034, 0.9071643700780694
554, 0.06593304002711617, 0.9280275374358178
555, 0.08548679602120669, 0.9048584650271468
556, 0.07567068177914811, 0.9362823911042706
557, 0.02731275837649766, 0.7284188382770149
558, 0.032491827311346075, 0.7035276967526947
559, 0.07251315531835668, 0.9264745127926215
560, 0.08307939078955034, 0.9197220173057701
561, 0.08600013383457689, 0.8561577738409547
562, 0.12998349709920146, 0.7811456308559167
563, 0.08312637268464515, 0.9317248626166486
564, 0.05926691520001643, 0.907351707473939
565, 0.1215948844649624, 0.9334284345659962
566, 0.06475563267303963, 0.8861399272434332
567, 0.07539646301509435, 0.9148624464905059
568, 0.07891457097227714, 0.6733211167249243
569, 0.032563523524772445, 0.776636011361894
570, 0.08077548251711747, 0.9105625833623848
571, 0.07769554444120916, 0.9322960321187761
572, 0.114173967335953, 0.7607642675019542
573, 0.080341947514067, 0.8497737059573348
574, 0.13893774605170342, 0.8860496263074353
575, 0.08106158133737393, 0.9346235779775667
576, 0.07551535725742523, 0.9183016772705079
577, 0.08458982224180145, 0.9216812516430649
578, 0.07601283488383302, 0.9324246963934665
579, 0.1250353969865149, 0.8629833424145257
580, 0.023628435947999894, 0.9335653540152873
581, 0.09056292168289383, 0.9110749186814316
582, 0.08890357197898495, 0.9198037183996297
583, 0.08269787610122259, 0.9368256717482197
584, 0.0763987388099889, 0.946664103406023
585, 0.10443492166792671, 0.802338421117518
586, 0.08419566006779859, 0.9328322593287728
587, 0.09123031118459046, 0.9275768624737519
588, 0.10148303307280158, 0.8735422090174427
589, 0.09924871558802432, 0.906901122071999
590, 0.08878554994218091, 0.932540035532273
591, 0.033453204659729674, 0.5823650724913287
592, 0.05215863961525694, 0.9837526199767126
593, 0.074337841082928, 0.786106155571273
594, 0.05173281038271801, 0.97158221407814
595, 0.050594887510810795, 0.9862682005593024
596, 0.05255289012868443, 0.9779434773997051
597, 0.054603995114964894, 0.9833425715561943
598, 0.04479776440416062, 0.9828929215119704
599, 0.04623028040369393, 0.9744593319177846
600, 0.17492741141683416, 0.8457732397184405
601, 0.05221763817101575, 0.9793654427777503
602, 0.014878594949624041, 0.8677204565357245
603, 0.05328195268685004, 0.972289876179182
604, 0.05156106064738208, 0.9619596877442882
605, 0.05167061048166301, 0.9702052666490433
606, 0.05198624606171872, 0.9724633034352261
607, 0.05345542915809962, 0.9758206698021434
608, 0.05144160148509589, 0.9702278406182122
609, 0.05225454459362029, 0.9675249269713726
610, 0.05168382454699466, 0.9702314235271052
611, 0.05017158682416484, 0.9800919686058762
612, 0.04651554568021695, 0.9766772272822954
613, 0.023321507814417494, 0.803024257344048
614, 0.05244278219072141, 0.9424520986501097
615, 0.05052061722274917, 0.9703686708557546
616, 0.05095345428411649, 0.9704200742005361
617, 0.05275764524450391, 0.9606057920258355
618, 0.12661462557759373, 0.9851395994101146
619, 0.05867060693515075, 0.9742181190189046
620, 0.05275299205217824, 0.9767677421381639
621, 0.04916396424870536, 0.9777229901220086
622, 0.04788583296617301, 0.9865709948699539
623, 0.045900039520757566, 0.9667651086767427
624, 0.04388306366694616, 0.8463920464354938
625, 0.04993345834581191, 0.9730883415059998
626, 0.046418812647716884, 0.98252112262438
627, 0.053900502734686245, 0.9628853778738087
628, 0.056042458559036536, 0.9736852957889448
629, 0.08621197319761974, 0.9696298217856089
630, 0.0547440869025625, 0.9777718070348108
631, 0.17860286126309938, 0.9332285197234746
632, 0.07664160246479054, 0.8942040418088357
633, 0.05342765857502625, 0.9028823117002043
634, 0.07005184199719403, 0.9568489212450118
635, 0.04040443971263154, 0.5789410528332479
636, 0.09747223072127102, 0.9689188161842379
637, 0.052906523054094344, 0.9762318485701326
638, 0.05690305530617102, 0.9719234517889472
639, 0.056293985556838996, 0.9856602818490023
640, 0.05502055757977099, 0.9790737088364013
641, 0.05332306172176319, 0.9662767710286144
642, 0.05135819412117268, 0.9770363752947118
643, 0.04957808579918181, 0.9677504296798599
644, 0.045045199628178746, 0.9843351290947601
645, 0.06799356682610352, 0.9565465245535874
646, 0.02141380995890924, 0.7817086462364082
647, 0.09177301307537518, 0.9686247137445956
648, 0.049685672955587644, 0.9750930874518279
649, 0.061689326608131596, 0.9613697438383044
650, 0.1090574959304843, 0.9497248708679573
651, 0.1442194817611661, 0.9291423023813556
652, 0.10352902829873249, 0.5966064617192897
653, 0.051419525077639416, 0.9797092313763293
654, 0.052406150862678504, 0.9748838177718796
655, 0.05385880866551575, 0.9713995187592863
656, 0.05880486185705707, 0.9615002258638442
657, 0.02050802186764628, 0.9246567568579622
658, 0.05386978563333013, 0.9635809896856634
659, 0.054932014871650045, 0.9663321639499161
660, 0.050694936468331904, 0.9725109264270001
661, 0.05417481905916761, 0.9544011536757573
662, 0.04981846653307182, 0.9633356721435149
663, 0.05308151831317201, 0.9553735538637511
664, 0.06597200945721214, 0.9219807512831069
665, 0.09619586448287491, 0.9690906068838221
666, 0.05050768596393198, 0.97069231277761
667, 0.05111912388053593, 0.9697481741593137
668, 0.05112520928352218, 0.46592265244726405
669, 0.025480442963746814, 0.8408378549002207
670, 0.051336677856814616, 0.9689174868784873
671, 0.05556799463542112, 0.957873436231732
672, 0.0641506180109955, 0.9564385488042498
673, 0.09537802636891321, 0.9710770597401057
674, 0.051580790772138105, 0.9726832963502653
675, 0.04851347384237628, 0.9560239252351763
676, 0.04839711605818437, 0.9800374156424556
677, 0.050468841513207297, 0.9684974811560381
678, 0.15721336798098617, 0.6127599099240799
679, 0.053111490518707546, 0.9734640922043035
680, 0.01663759562978342, 0.9162365192748265
681, 0.06044751877431107, 0.9320010580571124
682, 0.12629986790917397, 0.6269783577547832
683, 0.049790414844546875, 0.9305312815475077
684, 0.1683998458536085, 0.8762629866125038
685, 0.08687043177931907, 0.9320022478153014
686, 0.11341060361483482, 0.5446494173511083
687, 0.1148835473887392, 0.9747031952251595
688, 0.05058807797643154, 0.9706334917057804
689, 0.05176441764919219, 0.9705555862537427
690, 0.0570418406608243, 0.9695442553175166
691, 0.07669549469632708, 0.2867507992641294
692, 0.033339020573437156, 0.6348900155189775
693, 0.01978321739279279, 0.8987883944567205
694, 0.02091193586210068, 0.9034376805402986
695, 0.019741657225075884, 0.9354190780413809
696, 0.02083456759547842, 0.9188877147472492
697, 0.017664269497005898, 0.9034571135761229
698, 0.018848578927813144, 0.9208294438649888
699, 0.06759775860351101, 0.4291908958381199
700, 0.027330979909053563, 0.9012981607866876
701, 0.02887581714132212, 0.7862871861231023
702, 0.0185650751293505, 0.9141905225044327
703, 0.04211326224540157, 0.7570385899599785
704, 0.023279343900563736, 0.899221225588992
705, 0.021786024178878472, 0.9657210634175502
706, 0.024804394213454567, 0.9584402746829408
707, 0.046817381067359796, 0.7139058272653058
708, 0.0237692733772958, 0.8546749967383491
709, 0.04252470804935436, 0.7749227450949683
710, 0.03447247848421756, 0.7235596609332265
711, 0.029871923014316498, 0.9551001804694754
712, 0.03941869867912674, 0.9643670786949006
713, 0.02442637664441539, 0.9443862866663024
714, 0.02595648054964897, 0.9569529739432641
715, 0.06013259509077334, 0.8704270913551932
716, 0.050974913086288424, 0.558693994041088
717, 0.02911482518764112, 0.9444913947230233
718, 0.037544025260819874, 0.9711290712742846
719, 0.030900291486974988, 0.9529645522334567
720, 0.02337655898149914, 0.9538493636155618
721, 0.03930427158293176, 0.7317300445176461
722, 0.03404581443195491, 0.9175140128651609
723, 0.030229268641190223, 0.9666878737962987
724, 0.02517540896565443, 0.9488778717617217
725, 0.03182549066486061, 0.9687761547412226
726, 0.026375425167431115, 0.9511335107856662
727, 0.0146905788139547, 0.7815846228090033
728, 0.011517003769062839, 0.9184081412010243
729, 0.013082997146408823, 0.8477986628593174
730, 0.014290542399256605, 0.817490062138993
731, 0.01625147138541465, 0.6740062141102579
732, 0.02100474986150765, 0.803898842993443
733, 0.06480438477776895, 0.5645198371181598
734, 0.013168619986674714, 0.8455871778670936
735, 0.01479314599053158, 0.7944190808748184
736, 0.01585179373537008, 0.6867294274689255
737, 0.015364108008969653, 0.808188576672964
738, 0.016099435356621186, 0.7174380896788034
739, 0.01285476113555072, 0.8935218468934503
740, 0.013736704174466863, 0.8019694076333939
741, 0.016618274704059154, 0.8646038704939549
742, 0.021898875673128503, 0.8528915590640325
743, 0.0140540268653421, 0.8346323002571646
744, 0.0719145413035453, 0.42379745504848354
745, 0.015354154782917894, 0.7109588608089091
746, 0.014379068688980545, 0.7397954589996623
747, 0.012684714445723158, 0.8849511640468388
748, 0.013880880059496836, 0.7607690514379006
749, 0.014349931129252095, 0.8368196328542759
750, 0.017254847727722573, 0.6462295788344694
751, 0.014473221160086331, 0.8755782865300028
752, 0.020409564298221772, 0.6095179915810707
753, 0.01801061269861587, 0.5661322885418425
754, 0.016268312852437995, 0.6548631812855532
755, 0.09632620023459533, 0.33035399449436254
756, 0.012069562918995195, 0.8766164271674206
757, 0.013257267085996342, 0.8767647349116998
758, 0.10169642907384177, 0.5499842538609314
759, 0.15636913908397415, 0.6326056843193401
760, 0.06829523947921377, 0.7798876280879639
761, 0.1826376426681573, 0.9147512560368639
762, 0.06462893268721268, 0.8302760396548983
763, 0.07592537659353672, 0.6700557600008643
764, 0.06705024113693046, 0.6921018555593037
765, 0.06796809015537102, 0.771628513109421
766, 0.03850455256701164, 0.41264872467026337
767, 0.06415731011369079, 0.5910835600108784
768, 0.03780234459052195, 0.2941803629315558
769, 0.03168293374866266, 0.548025324382638
770, 0.03548943292237795, 0.9593772396351806
771, 0.0385244571278, 0.9428457883556013
772, 0.02022924687013471, 0.9497396794017305
773, 0.01712086562625163, 0.8747653231324364
774, 0.025214951029399718, 0.8341611277567849
775, 0.015849319525018283, 0.8861627167606725
776, 0.023840480273450784, 0.9449935445220488
777, 0.01603908216461846, 0.9350979069455327
778, 0.011287417363500649, 0.8985837035197215
779, 0.02154563162724376, 0.8046120256909557
780, 0.03166460990681892, 0.6998853888234822
781, 0.01960903412467913, 0.929321792408827
782, 0.009662829917372754, 0.9305659192887503
783, 0.021498196118460374, 0.9144694832298286
784, 0.021359396550142604, 0.8840708105576066
785, 0.02786208910455632, 0.576109546322928
786, 0.013920171713300587, 0.9009806408956852
787, 0.024507886058482573, 0.7587035922108718
788, 0.05289756656719885, 0.692949350348748
789, 0.011942548452402873, 0.9182024277777432
790, 0.02436710518581191, 0.878786692980647
791, 0.030416870811764782, 0.7503456502631793
792, 0.021661441748593756, 0.9259060177161785
793, 0.010573498550354471, 0.9632682322332196
794, 0.009488504555527513, 0.9398275444121612
795, 0.022166290096344594, 0.912530346039985
796, 0.02228816866813408, 0.9185149015795236
797, 0.024632800425066652, 0.8702808784149636
798, 0.013733034437971204, 0.9534168978175133
799, 0.02396394293395623, 0.8475968405672224
800, 0.0203834929265304, 0.9440688092193544
801, 0.02250775996906682, 0.7366362000502672
802, 0.028334151819302204, 0.8268121323477621
803, 0.02230194467649108, 0.9344832324789623
804, 0.01765938548947461, 0.9389583075395028
805, 0.020006485765330765, 0.931303204125584
806, 0.02258827452339096, 0.9608311926618872
807, 0.04877624157350925, 0.5369338035828332
808, 0.01931703565821964, 0.9121266961930039
809, 0.025506487223893603, 0.8153961279130906
810, 0.06703323769659951, 0.2504467680087541
811, 0.0472615326955522, 0.7364434263181996
812, 0.06912253249365409, 0.43403772476972535
813, 0.041986856937226355, 0.8263420000238272
814, 0.060628175643929874, 0.7006684682430184
815, 0.05861570902495902, 0.6820214168664933
816, 0.06233703412991207, 0.5526620518369414
817, 0.05166944162329301, 0.7386292150239355
818, 0.06676776211023315, 0.7593342528895782
819, 0.06326621674100856, 0.7096085306337053
820, 0.06087486990407128, 0.826665744039768
821, 0.0625414736149462, 0.44800705151295317
822, 0.07315913008673187, 0.9199641572772524
823, 0.10818831605271781, 0.9406930473752879
824, 0.030601691325525628, 0.7695959449677371
825, 0.03930095855594816, 0.7379724151906033
826, 0.05495745615059549, 0.8277352337596438
827, 0.06775727400435928, 0.4795267369941539
828, 0.0774319857019103, 0.34675891770727224
829, 0.04471235648192474, 0.5215050333224888
830, 0.017831321065536754, 0.7963820664257208
831, 0.016853873798151772, 0.8138166261440332
832, 0.109848967397085, 0.30882751465985514
833, 0.025174406881970156, 0.7310928573978541
834, 0.013505273027976735, 0.9045427926574878
835, 0.022926531320106504, 0.6354311081927324
836, 0.03446180450341499, 0.6290171333763286
837, 0.11657562970730605, 0.9234456260582858
838, 0.06143076872478104, 0.9709139989572109
839, 0.051960982835451704, 0.9752883209840149
840, 0.05336261686838171, 0.9611292648828683
841, 0.0651159753555814, 0.9624220372347674
842, 0.05324023916893695, 0.9707345703365853
843, 0.0651387525139501, 0.5832021212217439
844, 0.059538087971660894, 0.09361603967373883
845, 0.06163918385215914, 0.9712772567611113
846, 0.06697240868536802, 0.9612697442862004
847, 0.05671592601032746, 0.9733541044528681
848, 0.06686447038886925, 0.9403066763054676
849, 0.06533064336457968, 0.9517529624219028
850, 0.057419958032491746, 0.9578881428935972
851, 0.021097870489136413, 0.4143805045149981
852, 0.016686722134663472, 0.7243020909828682
853, 0.016640315300983213, 0.877913110388209
854, 0.018444662434467667, 0.7621707466390206
855, 0.052751731139173155, 0.300339567699313
856, 0.016385760572142253, 0.801374799633302
857, 0.015390593055005904, 0.7994269929502174
858, 0.019378980727323296, 0.7362270154746747
859, 0.030560311163251974, 0.5786805957313303
860, 0.018775758659035413, 0.7548349710369621
861, 0.029694335672098334, 0.6882421952051744
862, 0.015031075462645148, 0.770984136626258
863, 0.014045490721196902, 0.7848763176890862
864, 0.11774557997417624, 0.1498244989928533
865, 0.11133961911816177, 0.18666403536522508
866, 0.04921940959530612, -0.0450536071350008
867, 0.11906055415143868, -0.03666074404228149
868, 0.09477397296044662, 0.29066209439171536
869, 0.07947624074788726, 0.33299282445005257
870, 0.09323946248454297, 0.18676492132176647
871, 0.09764436178356964, 0.2361587243961729
872, 0.08795524852301058, 0.25824122638650526
873, 0.11217952887387388, 0.1245916641962874
874, 0.08084889104372377, 0.06645681413934837
875, 0.10812693440847171, 0.2795860526875674
876, 0.07347789845172802, 0.2755054645599352
877, 0.05834113930854596, 0.08752462724324976
878, 0.07210286691467281, 0.07297800524497375
879, 0.11373174415169877, 0.18398295922195898
880, 0.08060128444484163, 0.223319716122785
881, 0.11094714619186463, 0.47219936018281694
882, 0.1256525622864486, 0.1913930822217115
883, 0.14044119962368376, 0.03888937440955919
884, 0.08910174741122248, 0.15539300386114524
885, 0.09940378860345168, 0.2361304792063353
886, 0.25041982017201503, 0.10443748532783251
887, 0.11448792875716594, -0.027710270718944777
888, 0.116356342776715, 0.18746810872403571
889, 0.101245956392174, 0.1452559388824933
890, 0.09185406831369528, 0.05051581117012971
891, 0.10222760636387553, 0.11187125207978245
892, 0.09118061498489027, 0.7369298235284099
893, 0.08381040643047116, 0.4922683888489312
894, 0.10063130784277403, 0.22445190507752943
895, 0.10841119789770322, 0.17112788581372448
896, 0.08336981681833604, 0.3760520263521518
897, 0.030853381250199402, 0.877564063777309
898, 0.03232575308971412, 0.9086981601522341
899, 0.11328198388644665, -0.13890824194416207
900, 0.044986788331330095, 0.34547242382807136
901, 0.027750171308568095, 0.8621517571416726
902, 0.03468609679355414, 0.8131344716100894
903, 0.032768996910678645, 0.4631126291870271
904, 0.035797477155963375, 0.6027108786365578
905, 0.03720077182402216, 0.6981549059534118
906, 0.02953580596132616, 0.808753358834783
907, 0.04005364519756141, 0.7080833264146056
908, 0.029023550476702013, 0.7946959712374496
909, 0.03093538613051168, 0.8780466945358725
910, 0.06577235954130072, 0.1567214729087354
911, 0.03775969768576617, 0.7223846225837636
912, 0.035887166516250166, 0.37197633269773955
913, 0.03467671875151344, 0.7714837943457856
914, 0.02132467038815783, 0.8650349857872763
915, 0.047102547791327484, 0.8213445823782343
916, 0.04089920356911691, 0.8915633617923476
917, 0.042163674041098574, 0.9670798397900071
918, 0.03556948138318543, 0.1756326664708666
919, 0.028078478824146876, 0.8619973293180803
920, 0.033987866802568774, 0.9123040790684898
921, 0.08436843203764306, 0.4434075538512289
922, 0.03470788375320644, 0.8921185733138075
923, 0.02941249610234258, 0.9021031131514788
924, 0.04935735404843211, 0.6092032983194249
925, 0.047399761139353354, 0.8035723248431337
926, 0.10910767656973115, 0.9249065084786274
927, 0.055962835584494434, 0.1965574064738058
928, 0.04519220468104187, 0.7914255511799477
929, 0.02527608717789431, 0.9456355875962249
930, 0.03618448568434481, 0.8230379798250733
931, 0.04683025804372656, 0.6777979932007137
932, 0.08033719220117004, 0.43629716726316
933, 0.0305117202457458, 0.9030817010072749
934, 0.046345287825563436, 0.7242032013819679
935, 0.04362475949160391, 0.852623628121971
936, 0.049747645505432814, 0.7645450070929597
937, 0.033565443352308516, 0.8620279414164684
938, 0.026057516336105292, 0.888882464659563
939, 0.03504354276779231, 0.8803849444164147
940, 0.05011271284475066, 0.9425209819538741
941, 0.03286580301140762, 0.6154507504235851
942, 0.036110064729817835, 0.8692658048599508
943, 0.05246421101853529, 0.2609547314400108
944, 0.038563223814816125, 0.03418096302853092
945, 0.06139422688069158, 0.8482871386677845
946, 0.0362146210679384, 0.871744904010949
947, 0.027980347109314088, 0.5550034172767253
948, 0.040796790762908125, 0.37156948721374583
949, 0.06130628002789374, 0.5601828476597556
950, 0.02810368445137246, 0.5087328441926777
951, 0.02843400820923011, 0.5742960043374982
952, 0.030535881765823794, 0.6196555373227415
953, 0.0431713177458612, 0.3844017643841853
954, 0.07579200351929563, 0.2570218423497158
955, 0.04801811877345015, 0.40438167304888173
956, 0.11886771187467098, 0.4016245014502211
957, 0.4622704285524796, 0.03075572263359435
958, 0.02491834626555415, 0.6452492010952778
959, 0.03828020384467604, 0.5456599793123487
960, 0.028121337156867585, 0.575260838750679
961, 0.02998390771994223, 0.6007750943095697
962, 0.0381006181384894, 0.7151281417457068
963, 0.026089434515906146, 0.6536634449033061
964, 0.03168496602677325, 0.5644322550293357
965, 0.03234769477030125, 0.7655009488098772
966, 0.035092464736020304, 0.6631144979924584
967, 0.03138899481768607, 0.47162823858145664
968, 0.02960937516976228, 0.6181960594802378
969, 0.03790851899750657, 0.409990730428747
970, 0.053076834250711295, 0.411391130219068
971, 0.02846571811735001, 0.586039347187387
972, 0.031191349675285397, 0.7212975482374568
973, 0.028265509388397125, 0.5664553391684772
974, 0.035785982101705326, 0.30598051895496137
975, 0.03059473534676215, 0.7648807607251361
976, 0.044772893147538954, 0.41178759944648835
977, 0.06010280544373415, 0.5090740651169037
978, 0.09585608467448124, 0.3806450731648493
979, 0.07677862272818356, 0.4129077066406374
980, 0.11802652321114622, 0.4525025813275566
981, 0.1613101890058047, 0.4169710132442235
982, 0.03435242069614487, 0.862626874116244
983, 0.04983009356214071, 0.6110157154351872
984, 0.11720849734176067, 0.46232753986511255
985, 0.16375281815189882, 0.33979214867224405
986, 0.1908940304370031, 0.18113022860563743
987, 0.15756173079148267, 0.3844688512727097
988, 0.054396315345607606, 0.169882673939307
989, 0.062276690860027434, 0.7863246460565917
990, 0.033378660308562284, 0.9585452006956544
991, 0.02674090586493854, 0.9526125014968292
992, 0.03379971527433336, 0.9437630095687636
993, 0.03734637261840959, 0.9089774755000558
994, 0.04524574834344798, 0.809708046731376
995, 0.04310350820315702, 0.9094677767871719
996, 0.032797676344843193, 0.9499134092022086
997, 0.054379385597864774, 0.6503578765470099
998, 0.03048601956533469, 0.8600935059774084
999, 0.05655884239226742, 0.2941567118902232
1000, 0.04954417471917744, 0.9228901044960027
1001, 0.033567558951098884, 0.8711625717924376
1002, 0.04606114339125004, 0.8096253440312662
1003, 0.028182117386175362, 0.9613658071834781
1004, 0.05446826763547717, 0.6914320461193999
1005, 0.03401277397927126, 0.885135945066003
1006, 0.029155889992692637, 0.9546708721961299
1007, 0.03764219904398912, 0.9384786866101992
1008, 0.034487508752640644, 0.9098359513416178
1009, 0.05134646825941383, 0.8615591737586332
1010, 0.0774237087378661, 0.49632230419478024
1011, 0.05486044458897062, 0.907022052856538
1012, 0.07276629651410534, 0.9192170665104639
1013, 0.03380099417741443, 0.8022651179026598
1014, 0.0348020070532905, 0.8730583935038299
1015, 0.040417824517303504, 0.9322138415180957
1016, 0.037226146304431156, 0.8750474979906246
1017, 0.048259778105716765, 0.8942814014475173
1018, 0.035299140140180145, 0.8827453541201968
1019, 0.04112893187804537, 0.9095494647355967
1020, 0.040327139781250444, 0.8876057293769495
1021, 0.08664476057468772, 0.2688552284278821
1022, 0.028500605688317502, 0.9778559304967235
1023, 0.03624870615571478, 0.9387796739046255
1024, 0.07138616159795699, 0.7550570499601702
1025, 0.07407936624064887, 0.4255264418077259
1026, 0.07629240842497836, 0.8924894568720982
1027, 0.08170709643044202, 0.3717101017915182
1028, 0.06153988596790751, 0.7438647696304508
1029, 0.0313545823892017, 0.9041019173103793
1030, 0.04488139292357182, 0.9243535691904086
1031, 0.024590518185998344, 0.9325013865258545
1032, 0.12967096373368586, 0.7903479378379451
1033, 0.06429014287305908, 0.730578105507644
1034, 0.04855784518943864, 0.9032872451608969
1035, 0.03918087122288139, 0.8457701613490922
1036, 0.031208979596088284, 0.9326268383116951
1037, 0.03995794193787834, 0.8716902783759276
1038, 0.034050226885703215, 0.9047775230893152
1039, 0.028853411837770796, 0.895812642799129
1040, 0.043269929826882894, 0.9455366251467536
1041, 0.09912266464881428, 0.28068649109025096
1042, 0.05566053925366256, 0.6469514481925505
1043, 0.1458822183895367, 0.31478007998046736
1044, 0.043526830513911825, 0.7545102628653927
1045, 0.04124551427094849, 0.7955109277057518
1046, 0.03985249278090828, 0.8164068967353854
1047, 0.0634972598829647, 0.8155422914338533
1048, 0.05435050361421834, 0.842362796071508
1049, 0.04201977151379348, 0.8157193082528018
1050, 0.021534019538100087, 0.9613830165869202
1051, 0.020376810071260836, 0.951122464441803
1052, 0.02578920726398246, 0.9327101588993818
1053, 0.018578279444179897, 0.9530651258281062
1054, 0.0979099173426361, 0.18449371880015786
1055, 0.025869385993224758, 0.8762710256733118
1056, 0.02304746426457697, 0.9631521228606533
1057, 0.024090611234956046, 0.9263769818032446
1058, 0.026703404224542298, 0.9297617103579585
1059, 0.024930440864994928, 0.9476488277199471
1060, 0.022205780523998672, 0.9334446680109164
1061, 0.02340204773109628, 0.9324447720323039
1062, 0.019437461611041394, 0.9696997130279035
1063, 0.028344216893078634, 0.3530061164773055
1064, 0.014815577348338155, 0.5586559150833829
1065, 0.07720053876989078, 0.3705638560667551
1066, 0.08807180454039029, 0.24995860524455865
1067, 0.014164724004032096, 0.6787827848692672
1068, 0.018018986678001076, 0.539318823583408
1069, 0.0189136576826129, 0.6238701463116076
1070, 0.025561290944338132, 0.48394973936679786
1071, 0.016073363389467927, 0.425606491728805
1072, 0.020517329895890685, 0.2642812415281086
1073, 0.015289584149745416, 0.6454990721750801
1074, 0.022314260770472633, 0.8644499127274671
1075, 0.015657507102065083, 0.8138681770555667
1076, 0.013929305701917106, 0.3164833357524246
1077, 0.0974063908563699, 0.6002004655384454
1078, 0.016070397081909524, 0.4112745990433735
1079, 0.01713325523141451, 0.7505747719640139
1080, 0.014572704784266907, 0.7937859262750913
1081, 0.012757109299224466, 0.7755313814349589
1082, 0.01842533471236488, 0.8701674196026004
1083, 0.026176375841944644, 0.25030711044488335
1084, 0.012235181978412214, 0.3947288753295897
1085, 0.015019550116232154, 0.8137970911939751
1086, 0.014765950606571087, 0.7268910345473198
1087, 0.01704010308516539, 0.733869044326448
1088, 0.08515360527545746, 0.4943647721890948
1089, 0.018560833262471762, 0.3895896136838927
1090, 0.01936605028097445, -0.38696949868682023
1091, 0.023451035821092193, 0.8454637090801191
1092, 0.016333385477669996, 0.7301145353331833
1093, 0.016956234239331864, 0.5857286498451945
1094, 0.017653019149537187, 0.6172341116068202
1095, 0.017931026425761575, 0.6679708986247452
1096, 0.019191449192234804, 0.5303711662120835
1097, 0.03529523084213024, 0.7343886729226894
1098, 0.04856586965092294, 0.8364526240242764
1099, 0.07750688271074423, 0.14581188890727742
1100, 0.023476755020733108, 0.8833377764578614
1101, 0.031875522482096144, 0.849810641523458
1102, 0.046758942371733454, 0.7920091153269608
1103, 0.02965485104269165, 0.7901531701915463
1104, 0.032461312673341874, 0.8638635713653228
1105, 0.028170382379190693, 0.8379199090164692
1106, 0.02740881621214445, 0.8576778764766232
1107, 0.030643921705858643, 0.9247327906735514
1108, 0.07320715395679693, 0.8822164237681097
1109, 0.031091224806498036, 0.839388135824131
1110, 0.12293232583912436, 0.015256053542829062
1111, 0.03426859506688255, 0.7645519243161301
1112, 0.04592330854566317, 0.8511931553145937
1113, 0.028541388524774, 0.8524126061122786
1114, 0.03451911336803189, 0.7471635664301273
1115, 0.03975143636751545, 0.8204870898818725
1116, 0.030706435795888463, 0.830695315401495
1117, 0.03371988766213099, 0.8404210819384992
1118, 0.05365343886644491, 0.6909815105450223
1119, 0.023795470677108074, 0.9082033476622606
1120, 0.029715791194155836, 0.8539672289639583
1121, 0.10582085450966598, 0.27773808889660245
1122, 0.05450649814981802, 0.8078985175314266
1123, 0.027069677384420093, 0.8274418668348641
1124, 0.05784940538615749, 0.9308930171536458
1125, 0.06063250701946926, 0.9183467229564048
1126, 0.02855715340756521, 0.8727520618097868
1127, 0.047862886120808745, 0.9079921350783833
1128, 0.02820891700907118, 0.7121398616384877
1129, 0.033126747569333516, 0.9113856185197996
1130, 0.019282730369828374, 0.18598100008139412
1131, 0.025560375458009283, 0.3551534085568979
1132, 0.1403312729130661, 0.7616721792615325
1133, 0.021562646088794206, 0.7825800926023823
1134, 0.02232182597007108, 0.4480624339825435
1135, 0.021550524980981253, 0.4995622434928918
1136, 0.017805546718270896, 0.575952049295575
1137, 0.01921928988839667, 0.38632157679283574
1138, 0.02541195431201616, 0.536860237785643
1139, 0.019153887622012804, 0.42811613945042326
1140, 0.020853364693669253, 0.4100925492404862
1141, 0.0188778993162986, 0.6951260001727155
1142, 0.015780453171465494, 0.4439990070804039
1143, 0.09172769837796732, 0.5436365949773466
1144, 0.020420144137781163, 0.5015441705060806
1145, 0.022062180662589515, 0.21605906494781033
1146, 0.024592061797459173, 0.630308144243459
1147, 0.06439842033320824, 0.9479018917310708
1148, 0.04719219191873704, 0.9700814962632305
1149, 0.05885097733732562, 0.973851412411417
1150, 0.04575630239559075, 0.9477063681718401
1151, 0.08192068544467583, 0.8048843788392949
1152, 0.048979447942477924, 0.9479689818973183
1153, 0.06199854861365183, 0.9573360673317846
1154, 0.07062511007654752, 0.393636834989616
1155, 0.0496705821311877, 0.9611527725237107
1156, 0.06271407049663047, 0.9540874619562438
1157, 0.138312245524346, 0.8676547161735715
1158, 0.09427550775766573, 0.9359991918538741
1159, 0.05572511104698182, 0.970368209797585
1160, 0.0243464303742227, 0.9657228096269556
1161, 0.0210680917241324, 0.9631891740744137
1162, 0.03189157577298807, 0.9754380066686099
1163, 0.03583543077093497, 0.7306569017475546
1164, 0.03479827413748568, 0.8574561596787128
1165, 0.08685301132225398, 0.45027201911449455
1166, 0.052022764172990336, 0.659324922462516
1167, 0.1390129828266993, 0.45233774039679514
1168, 0.06030910598899617, 0.48799356874768157
1169, 0.17303074894151432, 0.4040368334115343
1170, 0.0158658681555346, 0.6803544673712505
1171, 0.029592685560561795, 0.020405625800815334
1172, 0.02950545663813993, 0.3873531503856765
1173, 0.016080059635300847, 0.25076836904317934
1174, 0.03124278453832918, -0.14650140961042765
1175, 0.07420464513770718, 0.5288388193148934
1176, 0.09482152289206834, 0.049997349938556104
1177, 0.07966646923634468, 0.1631041126518619
1178, 0.0865173876113555, 0.8614215608781646
1179, 0.062429640925622566, 0.9218345371004831
1180, 0.026661473045780815, 0.8300036751828983
1181, 0.04511841584318772, 0.9176896881759395
1182, 0.039174317279539066, 0.8852301700407562
1183, 0.05029047223021936, 0.9368479155078676
1184, 0.050879617020570166, 0.8508860583280947
1185, 0.053382084338971576, 0.8604416866396243
1186, 0.10039915462008102, 0.771804732328133
1187, 0.04987382723597328, 0.8979347077843318
1188, 0.09061412797170389, 0.19850804736357902
1189, 0.04663819974287931, 0.904642743186787
1190, 0.043943947445432764, 0.9185231708692956
1191, 0.014054880670876261, 0.9432143633825871
1192, 0.016687542509592458, 0.8726137260910665
1193, 0.018898737938846995, 0.8377661128587819
1194, 0.07966627092147904, 0.3760333182459319
1195, 0.03229974177143675, 0.4845432705051771
1196, 0.21669990274026607, -0.0686540962516356
1197, 0.09856126810750578, -0.10157346351554995
1198, 0.1312791429194971, 0.5369535965925143
1199, 0.08827952769096786, 0.23198576575263458
1200, 0.2895092599513876, 0.22587019133213115
1201, 0.12089211211591107, 0.13381423476595838
1202, 0.14274988080754109, 0.24794354110712508
1203, 0.13440051905781722, 0.0017442796816181602
1204, 0.029393438868117287, 0.6856062431208964
1205, 0.04363065794170455, 0.44702816053661315
1206, 0.04726620777276564, 0.3884419794221095
1207, 0.020777152845351622, 0.7314876406489559
1208, 0.10154880203201967, 0.08521803545906678
1209, 0.017814276183554294, 0.6702992303203695
1210, 0.06187594201001218, 0.557165884944909
1211, 0.042260223864987144, 0.5152572039821306
1212, 0.04920131410867129, 0.4410094983120203
1213, 0.0792495291328863, 0.08314330515480835
1214, 0.019112195973871628, 0.6616736845452861
1215, 0.02180870310028864, 0.7134100416811398
1216, 0.031693943698937854, 0.49996100577493907
1217, 0.05508647866226403, 0.11984354124671642
1218, 0.06357848236752006, 0.3226981736086582
1219, 0.036951470427571395, 0.42585383475579264
1220, 0.038009164178583056, 0.028465907038167978
1221, 0.10511178055739588, 0.26715765486334486
1222, 0.01997060261081671, 0.6877982695472817
1223, 0.021106652303649942, 0.6315033205037275
1224, 0.030874172876781996, 0.28766361367524873
1225, 0.018528646988144076, 0.7860584176091858
1226, 0.024842410541602487, 0.6482104543723919
1227, 0.15234708077369735, 0.21369445331656525
1228, 0.06513563898283528, 0.5178051332461883
1229, 0.11372960436202513, 0.4247755477820129
1230, 0.03752231376691296, 0.2433090441694239
1231, 0.04724962019563209, 0.18123120160118963
1232, 0.09715290047909, 0.174472284053729
1233, 0.04734275024438245, 0.3174680989362704
1234, 0.04170452832004608, 0.0353223802010587
1235, 0.052335775040574635, 0.2361163205927552
1236, 0.05140387018195032, 0.07716141869204615
1237, 0.056150447046914624, 0.1520273733709915
1238, 0.062443679874308405, -0.06299632731191326
1239, 0.09562924710752568, -0.11706489715795082
1240, 0.1023394192294033, 0.5374973658741393
1241, 0.13288534705681154, 0.36845994149782213
1242, 0.13467149678259577, 0.37747551519701883
1243, 0.09371693857166428, 0.35893031312415036
1244, 0.1791570711312353, 0.587238485376489
1245, 0.20310442829744452, 0.5285060729549254
1246, 0.10848700555155427, 0.5333038590740096
1247, 0.06200081103074518, 0.905722690109082
1248, 0.08274546683772509, 0.7245258571386692
1249, 0.07948170010474294, 0.5249514146042952
1250, 0.06513678387798251, 0.15672185945873102
1251, 0.01802148190150896, 0.3944159871603812
1252, 0.0890590832008429, 0.22132065168305698
1253, 0.11203662392063131, 0.5935187872101135
1254, 0.057502941497469304, 0.8313635399365423
1255, 0.4375536588198261, 0.16755256611169922
1256, 0.20188095554830704, -0.1436675800460339
1257, 0.015951981592667617, 0.6274507795866457
1258, 0.017027345401516174, 0.666204387327646
1259, 0.01986209471780967, 0.5024514906177919
1260, 0.02950330344417655, 0.296669404088883
1261, 0.02058796045313799, 0.4879152435069379
1262, 0.017251487859081927, 0.6072039878080862
1263, 0.06903207836197008, 0.22328357019290912
1264, 0.048105890757209425, 0.10001898760157164
1265, 0.09983912148771801, 0.3862004282588297
1266, 0.06581064784431416, 0.15460482683592058
1267, 0.02673795486212565, 0.7102472580279926
1268, 0.022153660243862065, 0.849443819839394
1269, 0.24212727377951318, -0.04540873805189302
1270, 0.021901180144650097, 0.856348082457328
1271, 0.02925541471883145, 0.6133506062196914
1272, 0.015826004399328644, 0.8966227105213248
1273, 0.029341845210366896, 0.7099724516256345
1274, 0.16842207592635178, 0.1914763016734907
1275, 0.07769880312934035, 0.12000866064101645
1276, 0.21344278735535627, 0.3967669470721399
1277, 0.030228357773667964, 0.740016276409106
1278, 0.03267591292595267, 0.8493839977518299
1279, 0.13064327439164783, 0.4545588442032192
1280, 0.017977833012618436, 0.9051525989157824
1281, 0.013886390041223648, 0.9050298604361646
1282, 0.015634080963365347, 0.8859880144292521
1283, 0.01880890905799608, 0.8457770169974907
1284, 0.018416682510081845, 0.8271101373741716
1285, 0.034341560081899716, 0.7552448489618744
1286, 0.03756267282348151, 0.8270222746737617
1287, 0.10625665762962247, 0.5630669854857786
1288, 0.34853641187083056, 0.44901208316016994
1289, 0.026198309747466047, 0.778821876080461
1290, 0.0694062353064824, 0.35676396091441354
1291, 0.02153986276681916, 0.8980749759009403
1292, 0.028296658074910715, 0.5975844015032394
1293, 0.015692442544609223, 0.9136176021662836
1294, 0.03146590043025715, 0.9744035499672288
1295, 0.033201916417201924, 0.9824243747247459
1296, 0.05899369250317637, 0.9206883626792954
1297, 0.06547747616327348, 0.8978289247481427
1298, 0.0782306782404316, 0.633823025319
1299, 0.13580815119757614, 0.3416613866582316
1300, 0.04610690297736892, 0.9656189022275691
1301, 0.039964159166677754, 0.9692143177983489
1302, 0.03521770966861648, 0.9801064871287284
1303, 0.04301660211781107, 0.957528906684195
1304, 0.061149346506819593, 0.8482746509734226
1305, 0.07421292591561655, 0.7851201393604819
1306, 0.03735300321810944, 0.9349641049968542
1307, 0.030484738377025047, 0.8553456115707665
1308, 0.06501625192842278, 0.457351107721649
1309, 0.030405407567180083, 0.845042499220166
1310, 0.1751318772986128, 0.04192635200368361
1311, 0.011548618470204905, 0.955427200437053
1312, 0.014045347929803985, 0.9679311872336274
1313, 0.016045278831197992, 0.9457008964777097
1314, 1.4322397760266492, -0.06948757900420216
1315, 0.6661020459080448, 0.16426267221674434
1316, 0.4293564890616745, 0.11177740234690953
1317, 0.021712136361915938, 0.9672300368887659
1318, 0.04410900740427352, 0.8664890209030286
1319, 0.04760570554593438, 0.9236505992946957
1320, 0.021066090800296935, 0.9687872800187406
1321, 0.16108631691706102, 0.331298426965912
1322, 0.05911948178632252, 0.8542959685362832
1323, 0.02561599536424397, 0.654568713693698
1324, 0.025898806452037116, 0.9738777648258337
1325, 0.04070230895386739, 0.9310556374878491
1326, 0.1163457602401142, 0.9504324275554081
1327, 0.03634110313983818, 0.45456620473573267
1328, 0.023848858604607358, 0.7287608985998473
1329, 0.024752547512710932, 0.886243496617195
1330, 0.015032980908656781, 0.9402116004620447
1331, 0.015914736630570553, 0.9266965327118305
1332, 0.3985738612373496, 0.21544058591545845
1333, 0.01808202057129493, 0.8099816509042961
1334, 0.08454955091940422, 0.9137916026656618
1335, 0.035510094578174556, 0.8840336728961552
1336, 0.012728522035937943, 0.8907650726901262
1337, 0.01928875951458683, 0.7572843274128245
1338, 0.012709710402876634, 0.8982849320217878
1339, 0.019238680798565846, 0.9238030291458889
1340, 0.018496450628179634, 0.7778291875196773
1341, 0.0397568277086172, 0.6412702990584511
1342, 0.02059736487233585, 0.7722945394615207
1343, 0.17073935924437442, 0.672870229741635
1344, 0.011375539558555879, 0.9199568936649402
1345, 0.015089788301922893, 0.8816433451308245
1346, 0.02314104634828885, 0.8625473811393962
1347, 0.035096459687110906, 0.5385527285297136
1348, 0.0533943508861441, 0.6723751161463598
1349, 0.028421592598904418, 0.6055246548761355
1350, 0.03399904471723536, 0.5415625534080506
1351, 0.0328615397891128, 0.4922919917681984
1352, 0.022258363287999808, 0.762032693767604
1353, 0.018431361653011655, 0.7435062090942433
1354, 0.22161736769417392, 0.5369421196871569
1355, 0.02643680800719179, 0.4650311240663269
1356, 0.048973343497970875, 0.5485968876279947
1357, 0.028312040076221835, 0.4986059887354742
1358, 0.014791079232675124, 0.8339587139417106
1359, 0.038311823669782016, 0.8971732159361111
1360, 0.04122181181983088, 0.3253606174873518
1361, 0.015669022826128778, 0.8941130429271984
1362, 0.020499555554713854, 0.7686171528920283
1363, 0.027152488924844204, 0.34709689960605156
1364, 0.042029039993993766, -0.028614035294824425
1365, 0.22746382443694763, 0.4242776670054094
1366, 0.028852936808174336, 0.5061913147483672
1367, 0.09862244048269801, 0.08691208841036496
1368, 0.041727528969110396, 0.19344195495307343
1369, 0.19127245588651104, -0.18178739067231278
1370, 0.016740093091150352, 0.8272011708260824
1371, 0.017899853417103227, 0.7814365870382269
1372, 0.02487131558586737, 0.3690993766706955
1373, 0.0189415836392197, 0.7662303443166512
1374, 0.015479609200981508, 0.8311644767734901
1375, 0.013355815058274188, 0.8366889519132744
1376, 0.04622807242302905, 0.8154309099657446
1377, 0.14020421630276902, -0.10435963578665103
1378, 0.08480970448456626, 0.22157133302588966
1379, 0.05001918646972761, 0.31300707572473585
1380, 0.01344950430938347, 0.94916943746433
1381, 0.017071320454279743, 0.9067861025450559
1382, 0.01612933270930412, 0.9429940952752521
1383, 0.013583219349962468, 0.9783007121677357
1384, 0.03166451225552474, 0.8841705314220805
1385, 0.12768649507788826, 0.09933371646981867
1386, 0.011867466020342495, 0.9523247182051814
1387, 0.04512764618732863, 0.7741465561977922
1388, 0.010686630968032119, 0.9847872354123093
1389, 0.01154995618212151, 0.9809453166264117
1390, 0.08779944315521308, 0.8711694171490438
1391, 0.0557255072171495, 0.8361956735110659
1392, 0.01994233421670213, 0.9683784887008214
1393, 0.020767319801488337, 0.9267711304338415
1394, 0.014895934009004245, 0.9467713922650657
1395, 0.013514950250233745, 0.9492151116965206
1396, 0.017658703660350477, 0.9639447078459717
1397, 0.020851658003579108, 0.92722633300685
1398, 0.037979286130820133, 0.8104133090945315
1399, 0.04065516940423359, 0.767111420485117
1400, 0.036740876129345526, 0.8868952345959424
1401, 0.02091516539039816, 0.9414995323341973
1402, 0.014659413525479998, 0.9507162839703767
1403, 0.042134834512493946, 0.9021558830057309
1404, 0.02651879708490867, 0.9093021982609295
1405, 0.024187815419264475, 0.894088326537165
1406, 0.011928907398736721, 0.9723683266556373
1407, 0.03340221487786628, 0.5614089313794997
1408, 0.03170735407957728, 0.8047639370872959
1409, 0.035632616340687324, 0.7408133808394747
1410, 0.04122936704243353, 0.7609014244179033
1411, 0.018409851516412747, 0.9405033756292545
1412, 0.013875175785942728, 0.9467464308724042
1413, 0.010277637422036115, 0.9809091672914312
1414, 0.009916621577247701, 0.9690193951923105
1415, 0.010949220070999653, 0.9639856475868496
1416, 0.01637035006076875, 0.9626443193183677
1417, 0.011602144659731592, 0.9640082315177485
1418, 0.01066213585862854, 0.9830500444406378
1419, 0.013133295354490676, 0.9374769609362831
1420, 0.01693343085822298, 0.941333665838429
1421, 0.056885137738913405, 0.8301655831102099
1422, 0.010677024699671257, 0.9747777288366412
1423, 0.019316902034319447, 0.9797093803850156
1424, 0.010631810101377977, 0.9768753750006296
1425, 0.013691651163238146, 0.9607944421278014
1426, 0.016598378540380085, 0.9800965160953671
1427, 0.014602668333014199, 0.93924686454625
1428, 0.021699297105140014, 0.9175289820060171
1429, 0.017091161770005664, 0.9464091235116772
1430, 0.01643404768475222, 0.9171804641229805
1431, 0.018920330658633078, 0.9200930046011944
1432, 0.04323217915446668, 0.794768596524322
1433, 0.010873098806339243, 0.9780848590541644
1434, 0.013424227046663517, 0.9546588900712805
1435, 0.012217864262945985, 0.9519634603597232
1436, 0.013133577528624228, 0.9474570255865102
1437, 0.015248783782820286, 0.9605588388513657
1438, 0.015230224602248977, 0.9383972777825909
1439, 0.013095222102297082, 0.9655580012531763
1440, 0.012486762996558503, 0.9758947568096961
1441, 0.01726265788001091, 0.9774031110183051
1442, 0.014442140796353241, 0.9694531902170334
1443, 0.029309520352646574, 0.8755861005375654
1444, 0.01279005110126278, 0.9592483259700348
1445, 0.01267074086139039, 0.9581723788595735
1446, 0.012318578194226068, 0.9599199299722587
1447, 0.01597660280140773, 0.9079237230436832
1448, 0.013026650179101283, 0.970134571354284
1449, 0.013421259892549543, 0.9481952858209993
1450, 0.015336351868372046, 0.9756578749423404
1451, 0.019429403899852826, 0.9772409374127855
1452, 0.02079157386651623, 0.9907205791736389
1453, 0.16757201108948053, 0.0923548978114235
1454, 0.04056963425227633, 0.8613797619415169
1455, 0.24142155113862968, 0.27893446081513307
1456, 0.12210073005443733, 0.2751664683402466
1457, 0.18562443403930254, 0.09479295007406172
1458, 0.26868901365126524, 0.49242604995016714
1459, 0.30635156311103967, 0.012549571670015915
1460, 0.1937806385557315, 0.15830745061100285
1461, 0.28397442617808305, 0.11683306251374191
1462, 0.2482192964974548, 0.6114529952980848
1463, 0.17959732862959493, 0.09375585402993228
1464, 0.13156907197159834, 0.3259771242328414
1465, 0.035259182010078535, 0.7219911592334181
1466, 0.13334293865184219, 0.33679816711983523
1467, 0.21216706698288518, 0.14175206785147343
1468, 0.19904204506015036, 0.5326231692664146
1469, 0.2846718971543186, 0.09181364131335426
1470, 0.26861600851871587, -0.06484340572376351
1471, 0.8639336569889379, -0.051153778983511235
1472, 0.6080648845445293, 0.21533014772308526
1473, 0.02821725675817792, 0.7536743941179804
1474, 0.027319044665362533, 0.7834218176100153
1475, 0.025159645306684453, 0.7293053397460625
1476, 0.039060041535188945, 0.5105764684038088
1477, 0.020800550371328705, 0.7448579651794833
1478, 0.10523946950255539, 0.23477934701086411
1479, 0.04553497328655504, 0.49081632953979604
1480, 0.0617805978659572, 0.3295259379972105
1481, 0.017993292660804544, 0.8662870419586252
1482, 0.04851487679856947, 0.42864089327333005
1483, 0.027377272970369737, 0.6427531044805983
1484, 0.023700029293183465, 0.8104315039295447
1485, 0.021149759532811282, 0.8765959856212134
1486, 0.024830974243143563, 0.6519131960309461
1487, 0.04513963100252777, 0.6581068661797291
1488, 0.02245447379196674, 0.8160214442269395
1489, 0.023245178606407953, 0.7733851319533509
1490, 0.02194995354747326, 0.7979576342956377
1491, 0.029059997024285227, 0.687618762105472
1492, 0.061152631736886065, 0.5077045202148691
1493, 0.022710880505339016, 0.7182709945851544
1494, 0.027190771112497136, 0.6151703245367293
1495, 0.019650880157721, 0.7404261397016912
1496, 0.012723497659217656, 0.8781001296014561
1497, 0.007914680353822395, 0.961102136129957
1498, 0.05197551322837747, 0.5623696552695296
1499, 0.010753658783578913, 0.7840184590574599
1500, 0.06233566843014186, 0.27006440552621275
1501, 0.09716079692432669, 0.23128470547751354
1502, 0.01728761131791297, 0.7915088750187582
1503, 0.07049742389314269, 0.7275013210350388
1504, 0.01706548114371573, 0.9386949987626628
1505, 0.01594072644555147, 0.7972437152231082
1506, 0.05518688862070197, 0.6520717860574821
1507, 0.05525347258261065, 0.1593534597947668
1508, 0.023450790592377504, 0.6042782419058284
1509, 0.03928510993482624, 0.691405420033635
1510, 0.04874906304862295, 0.5591051856323881
1511, 0.08078945649280866, 0.8262483375204687
1512, 0.05931881262710355, 0.9400085306301216
1513, 0.008710544923825099, 0.8483249240794244
1514, 0.05487814238900171, 0.48508343558625094
1515, 0.017559550371608036, 0.7988000686268293
1516, 0.011878610001733797, 0.9128901819336536
1517, 0.08624923913290225, 0.05279659133154477
1518, 0.029204918308316615, 0.41253581546388074
1519, 0.017886928551503357, 0.6411274895699386
1520, 0.008211756745191808, 0.9140796577840076
1521, 0.038080129557653566, 0.848648338481458
1522, 0.01483217402821634, 0.7247432752077959
1523, 0.010746781919004944, 0.8442141357560367
1524, 0.08353459690827615, 0.9308220534716987
1525, 0.02902911276778001, 0.8524067771021522
1526, 0.013671782729478985, 0.8565257248622191
1527, 0.015127181060285952, 0.7920095996893668
1528, 0.0109543918421101, 0.8642374562620487
1529, 0.01088720584082342, 0.9116326107274305
1530, 0.028454351079160275, 0.8570538697722543
1531, 0.05575037052625791, 0.8027496905533597
1532, 0.08363081232480787, 0.5542709615416823
1533, 0.033101218179431034, 0.5981244557582898
1534, 0.07924137830761584, 0.5680813875279562
1535, 0.031224984767695155, 0.8146345500720436
1536, 0.018637232702983637, 0.6324835429780022
1537, 0.011975831292736635, 0.8482855495545663
1538, 0.012840467416176553, 0.8878671679995609
1539, 0.009344723121366444, 0.9187404161221
1540, 0.01732853390085751, 0.6000621029751397
1541, 0.017096862530684206, 0.7722251879611057
1542, 0.009299850597065045, 0.9037369140330209
1543, 0.04850023363611284, 0.22617654780730673
1544, 0.013406041351881729, 0.935365471182152
1545, 0.10181483940859358, 0.9760954891649369
1546, 0.039011259045311567, 0.7331463031044041
1547, 0.04380163137483179, 0.4940930569546584
1548, 0.02364538738998924, 0.9198525544512275
1549, 0.14717390829852567, 0.9601814861392106
1550, 0.0477907082795775, 0.5040395199274795
1551, 0.02666828008356892, 0.8840433170760204
1552, 0.019948895628259782, 0.9628434672870052
1553, 0.0208636930073111, 0.8367659729721133
1554, 0.031051578714406544, 0.34537536419986126
1555, 0.022649664686547947, 0.8957072152659559
1556, 0.05607500433763883, 0.7954584316863322
1557, 0.014836235266195092, 0.9301131429417817
1558, 0.03137382468164576, 0.8023087737024285
1559, 0.017501709576246118, 0.9480093835552623
1560, 0.03935365767286228, 0.8741134962316676
1561, 0.11706514049407728, 0.9616441073877318
1562, 0.11856694538251229, 0.9597105511412283
1563, 0.11096073714169563, 0.8902150926677604
1564, 0.033393118502690305, 0.9417792104100858
1565, 0.07875308765209639, 0.10974201610317236
1566, 0.1087510587714396, 0.9740715154921614
1567, 0.14524502988583318, 0.9488183080176749
1568, 0.049968851669855444, 0.7354249441436097
1569, 0.022982492828901052, 0.8985050549512361
1570, 0.15799070940468005, 0.9269780498082896
1571, 0.03165745781287209, 0.7049730230174163
1572, 0.050901512123240816, 0.43344889097449146
1573, 0.027039952702269807, 0.8906413709022768
1574, 0.014855296371813497, 0.8673018836030875
1575, 0.01835530987011413, 0.9639483580950876
1576, 0.10950885946804696, 0.6040970360343991
1577, 0.0220105509532473, 0.857811481615619
1578, 0.01337745073992183, 0.9523572348233686
1579, 0.0247781245209835, 0.9257440384262704
1580, 0.03939238940888168, 0.7525179950003107
1581, 0.06482286775489118, 0.39686495668959837
1582, 0.05504803582653078, 0.5813102082128236
1583, 0.1751796550286679, 0.17060806473671392
1584, 0.034691678246256304, 0.7194463616171266
1585, 0.11276060419232713, 0.9299625278150058
1586, 0.01579252164743216, 0.9491347858314101
1587, 0.05877850661037855, 0.6041223379921458
1588, 0.016279634429190566, 0.9477761288367388
1589, 0.013701846297908157, 0.937522841731318
1590, 0.03735638721916445, 0.8797878516333639
1591, 0.016823983708362286, 0.8062363698049624
1592, 0.01893512602880581, 0.9503419802025628
1593, 0.03758191283037159, 0.6328099856464131
1594, 0.032294934947665, 0.8841767035028223
1595, 0.03925817884333094, 0.7194174598141643
1596, 0.020495619322437104, 0.967347925554819
1597, 0.027197068677332785, 0.803766623425641
1598, 0.07201137339432316, 0.4170943785158041
1599, 0.02079148370496591, 0.8131981381375383
1600, 0.06795607127817754, 0.6213891828836406
1601, 0.01978039325136504, 0.7453990127891194
1602, 0.02137091545460785, 0.8082984698252635
1603, 0.020052406960107856, 0.9410278437920707
1604, 0.017248529816295453, 0.8610886859634119
1605, 0.022775986582659676, 0.730328074361974
1606, 0.01667729765635453, 0.9120009805483501
1607, 0.02170184665038034, 0.8748095157625561
1608, 0.02117709137669799, 0.8718114388835545
1609, 0.03184175458205355, 0.44478616284737416
1610, 0.02511717083727169, 0.7710003918715977
1611, 0.023817407672902247, 0.844999831649879
1612, 0.024907452644041764, 0.7828833245903288
1613, 0.033444574078234306, 0.2864509043131695
1614, 0.03527120864865647, 0.48859599757659394
1615, 0.024457173175039332, 0.7440170623635154
1616, 0.021691907247308753, 0.7778614712263542
1617, 0.07595396214112979, 0.9798667809396859
1618, 0.01516327629351764, 0.7666890069871375
1619, 0.030363439909108097, 0.5516616173109911
